timestamp ecg
643901890570193273 5973
643901890577878722 5941
643901890585564171 5953
643901890593249620 5888
643901890600935069 5791
643901890608620518 5703
643901890616305967 5660
643901890623991416 5613
643901890631676865 5548
643901890639362314 5577
643901890647047763 5601
643901890654733212 5560
643901890662418661 5565
643901890670104110 5523
643901890677789559 5431
643901890685475008 5470
643901890693160457 5528
643901890700845906 5485
643901890708531355 5441
643901890716216804 5429
643901890723902253 5441
643901890731587702 5438
643901890739273151 5380
643901890746958600 5351
643901890754644049 5346
643901890762329498 5290
643901890770014947 5266
643901890777700396 5288
643901890785385845 5232
643901890793071294 5152
643901890800756743 5159
643901890808442192 5157
643901890816127641 5081
643901890823813090 5060
643901890831498539 5055
643901890839183988 4994
643901890846869437 4950
643901890854554886 4931
643901890862240335 4894
643901890869925784 4858
643901890877611233 4817
643901890885296682 4741
643901890892982131 4707
643901890900667580 4741
643901890908353029 4729
643901890916038478 4676
643901890923723927 4654
643901890931409376 4605
643901890939094825 4549
643901890946780274 4511
643901890954465723 4452
643901890962151172 4399
643901890969836621 4374
643901890977522070 4326
643901890985207519 4231
643901890992892968 4175
643901891000578417 4294
643901891008263866 4700
643901891015949315 5244
643901891023634764 5565
643901891031320213 5251
643901891039005662 4370
643901891046691111 3770
643901891054376560 3789
643901891062062009 3845
643901891069747458 3728
643901891077432907 3668
643901891085118356 3651
643901891092803805 3600
643901891100489254 3570
643901891108174703 3556
643901891115860152 3522
643901891123545601 3490
643901891131201002 3468
643901891138886869 3447
643901891146572736 3400
643901891154258603 3369
643901891161944470 3388
643901891169630337 3386
643901891177316204 3352
643901891185002071 3369
643901891192687938 3376
643901891200373805 3335
643901891208059672 3345
643901891215745539 3396
643901891223431406 3381
643901891231117273 3328
643901891238803140 3301
643901891246489007 3269
643901891254174874 3211
643901891261860741 3143
643901891269546608 3014
643901891277232475 2847
643901891284918342 2757
643901891292604209 2735
643901891300290076 2667
643901891307975943 2550
643901891315661810 2497
643901891323347677 2519
643901891331033544 2523
643901891338719411 2470
643901891346405278 2380
643901891354091145 2344
643901891361777012 2375
643901891369462879 2370
643901891377148746 2317
643901891384834613 2290
643901891392520480 2278
643901891400206347 2239
643901891407892214 2225
643901891415578081 2227
643901891423263948 2166
643901891430949815 2113
643901891438635682 2130
643901891446321549 2125
643901891454007416 2067
643901891461693283 2028
643901891469379150 2018
643901891477065017 2004
643901891484750884 1972
643901891492436751 1940
643901891500122618 1923
643901891507808485 1899
643901891515494352 1863
643901891523180219 1838
643901891530866086 1824
643901891538551953 1787
643901891546237820 1761
643901891553923687 1753
643901891561609554 1719
643901891569295421 1676
643901891576981288 1690
643901891584667155 1715
643901891592353022 1681
643901891600038889 1656
643901891607724756 1671
643901891615410623 1651
643901891623096490 1600
643901891630782357 1566
643901891638468224 1554
643901891646154091 1532
643901891653839958 1513
643901891661525825 1510
643901891669211692 1457
643901891676897559 1353
643901891684583426 1404
643901891692279353 1785
643901891699965081 2412
643901891707650809 2997
643901891715336537 2973
643901891723022265 2115
643901891730707993 1285
643901891738393721 1158
643901891746079449 1258
643901891753765177 1180
643901891761450905 1107
643901891769136633 1102
643901891776822361 1078
643901891784508089 1051
643901891792193817 1059
643901891799879545 1090
643901891807565273 1085
643901891815251001 1039
643901891822936729 1029
643901891830622457 1059
643901891838308185 1066
643901891845993913 1071
643901891853679641 1085
643901891861365369 1095
643901891869051097 1124
643901891876736825 1127
643901891884422553 1100
643901891892108281 1136
643901891899794009 1207
643901891907479737 1231
643901891915165465 1229
643901891922851193 1229
643901891930536921 1219
643901891938222649 1175
643901891945908377 1102
643901891953594105 1037
643901891961279833 954
643901891968965561 852
643901891976651289 791
643901891984337017 774
643901891992022745 770
643901891999708473 723
643901892007394201 665
643901892015079929 668
643901892022765657 687
643901892030451385 677
643901892038137113 680
643901892045822841 699
643901892053508569 672
643901892061194297 619
643901892068880025 624
643901892076565753 651
643901892084251481 643
643901892091937209 631
643901892099622937 636
643901892107308665 638
643901892114994393 626
643901892122680121 619
643901892130365849 597
643901892138051577 570
643901892145737305 585
643901892153423033 597
643901892161108761 583
643901892168794489 578
643901892176480217 575
643901892184165945 556
643901892191851673 558
643901892199537401 556
643901892207223129 519
643901892214908857 517
643901892222594585 544
643901892230280313 524
643901892237966041 483
643901892245651769 488
643901892253347606 519
643901892261033194 490
643901892268718782 459
643901892276404370 512
643901892284089958 527
643901892291775546 468
643901892299461134 468
643901892307146722 514
643901892314832310 510
643901892322517898 493
643901892330203486 493
643901892337889074 473
643901892345574662 437
643901892353260250 434
643901892360945838 444
643901892368631426 410
643901892376317014 354
643901892384002602 432
643901892391688190 847
643901892399373778 1554
643901892407059366 2098
643901892414744954 1902
643901892422430542 1005
643901892430116130 318
643901892437801718 267
643901892445487306 327
643901892453172894 240
643901892460858482 189
643901892468544070 201
643901892476229658 208
643901892483915246 218
643901892491600834 230
643901892499286422 233
643901892506972010 250
643901892514657598 274
643901892522343186 274
643901892530028774 269
643901892537714362 259
643901892545399950 252
643901892553085538 303
643901892560771126 359
643901892568456714 391
643901892576142302 427
643901892583827890 420
643901892591513478 415
643901892599199066 480
643901892606884654 551
643901892614570242 566
643901892622255830 546
643901892629941418 534
643901892637627006 512
643901892645312594 449
643901892652998182 371
643901892660683770 315
643901892668369358 274
643901892676054946 228
643901892683740534 179
643901892691426122 131
643901892699111710 126
643901892706797298 174
643901892714482886 170
643901892722168474 104
643901892729854062 94
643901892737539650 123
643901892745225238 126
643901892752910826 126
643901892760596414 123
643901892768282002 114
643901892775967590 126
643901892783653178 136
643901892791338766 153
643901892799024354 182
643901892806709942 145
643901892814375513 68
643901892822061380 89
643901892829747247 153
643901892837433114 123
643901892845118981 99
643901892852804848 162
643901892860490715 179
643901892868176582 104
643901892875862449 89
643901892883548316 133
643901892891234183 119
643901892898920050 99
643901892906605917 116
643901892914291784 106
643901892921977651 126
643901892929663518 165
643901892937349385 106
643901892945035252 55
643901892952721119 123
643901892960406986 145
643901892968092853 68
643901892975778720 70
643901892983464587 131
643901892991150454 109
643901892998836321 106
643901893006522188 153
643901893014208055 143
643901893021893922 133
643901893029579789 150
643901893037265656 121
643901893044951523 104
643901893052637390 133
643901893060323257 133
643901893068009124 106
643901893075694991 114
643901893083380858 119
643901893091066725 43
643901893098752592 29
643901893106438459 366
643901893114124326 1015
643901893121810193 1668
643901893129496060 1797
643901893137181927 1029
643901893144867794 97
643901893152553661 -111
643901893160239528 34
643901893167925395 0
643901893175611262 -60
643901893183297129 -80
643901893190982996 -111
643901893198668863 -43
643901893206354730 29
643901893214040597 -4
643901893221726464 -34
643901893229412331 -7
643901893237098198 2
643901893244784065 0
643901893252469932 12
643901893260155799 53
643901893267841666 99
643901893275527533 131
643901893283213400 143
643901893290899267 143
643901893298585134 191
643901893306271001 233
643901893313956868 250
643901893321642735 325
643901893329328602 381
643901893337014469 342
643901893344700336 344
643901893352386203 386
643901893360072070 327
643901893367757937 221
643901893375473952 165
643901893383159401 94
643901893390844850 -7
643901893398530299 -46
643901893406215748 -36
643901893413901197 -31
643901893421586646 -26
643901893429272095 -51
643901893436957544 -87
643901893444642993 -85
643901893452328442 -68
643901893460013891 -53
643901893467699340 -31
643901893475384789 -19
643901893483070238 -31
643901893490755687 -43
643901893498441136 -38
643901893506126585 -43
643901893513812034 -48
643901893521497483 -36
643901893529182932 -21
643901893536868381 -17
643901893544553830 -17
643901893552239279 -19
643901893559924728 -29
643901893567610177 -19
643901893575295626 9
643901893582981075 -4
643901893590666524 -31
643901893598351973 -12
643901893606037422 0
643901893613722871 -12
643901893621408320 -12
643901893629093769 -14
643901893636779218 -12
643901893644464667 -2
643901893652150116 -12
643901893659835565 -12
643901893667521014 4
643901893675206463 -24
643901893682891912 -51
643901893690577361 -17
643901893698262810 21
643901893705948259 31
643901893713633708 48
643901893721319157 65
643901893729004606 34
643901893736690055 0
643901893744375504 48
643901893752060953 53
643901893759746402 -17
643901893767431851 -7
643901893775117300 68
643901893782802749 80
643901893790488198 19
643901893798173647 -38
643901893805859096 -53
643901893813544545 12
643901893821229994 347
643901893828915443 969
643901893836600892 1559
643901893844286341 1581
643901893851971790 789
643901893859657239 -48
643901893867342688 -187
643901893875028137 -31
643901893882713586 -60
643901893890399035 -104
643901893898084484 -121
643901893905769933 -145
643901893913455382 -55
643901893921140831 26
643901893928826280 -58
643901893936481685 -97
643901893944167552 -2
643901893951853419 -36
643901893959539286 -104
643901893967225153 -31
643901893974911020 29
643901893982596887 53
643901893990282754 126
643901893997968621 119
643901894005654488 48
643901894013340355 138
643901894021026222 291
643901894028712089 286
643901894036397956 240
643901894044083823 308
643901894051769690 381
643901894059455557 347
643901894067141424 310
643901894074827291 289
643901894082513158 199
643901894090199025 89
643901894097884892 43
643901894105570759 -19
643901894113256626 -153
643901894120942493 -170
643901894128628360 -68
643901894136314227 -75
643901894144000094 -133
643901894151685961 -109
643901894159371828 -87
643901894167057695 -162
643901894174743562 -172
643901894182429429 -53
643901894190115296 -46
643901894197801163 -133
643901894205487030 -128
643901894213172897 -102
643901894220858764 -70
643901894228544631 -7
643901894236230498 -55
643901894243916365 -162
643901894251602232 -85
643901894259288099 36
643901894266973966 -51
643901894274659833 -165
643901894282345700 -87
643901894290031567 -34
643901894297717434 -58
643901894305403301 0
643901894313089168 -2
643901894320775035 -119
643901894328460902 -140
643901894336146769 -53
643901894343832636 7
643901894351518503 19
643901894359204370 -12
643901894366890237 -116
643901894374576104 -121
643901894382261971 14
643901894389947838 24
643901894397633705 -87
643901894405319572 -114
643901894413005439 -65
643901894420691306 -51
643901894428377173 -75
643901894436063040 -24
643901894443748907 58
643901894451434774 31
643901894459120641 -19
643901894466806508 14
643901894474492375 19
643901894482178242 -48
643901894489864109 -48
643901894497580124 4
643901894505265573 12
643901894512951022 9
643901894520636471 21
643901894528321920 -70
643901894536007369 -182
643901894543692818 21
643901894551378267 609
643901894559063716 1321
643901894566749165 1773
643901894574434614 1433
643901894582120063 378
643901894589805512 -289
643901894597490961 -170
643901894605176410 -46
643901894612861859 -179
643901894620547308 -245
643901894628232757 -194
643901894635918206 -162
643901894643603655 -165
643901894651289104 -136
643901894658974553 -89
643901894666660002 -94
643901894674345451 -111
643901894682030900 -77
643901894689716349 -58
643901894697401798 -70
643901894705087247 -38
643901894712772696 17
643901894720458145 43
643901894728143594 58
643901894735829043 89
643901894743514492 138
643901894751199941 199
643901894758885390 240
643901894766570839 242
643901894774256288 259
643901894781941737 291
643901894789627186 293
643901894797312635 252
643901894804998084 189
643901894812683533 114
643901894820368982 41
643901894828054431 0
643901894835739880 -34
643901894843425329 -106
643901894851110778 -155
643901894858796227 -116
643901894866481676 -99
643901894874167125 -138
643901894881852574 -131
643901894889538023 -97
643901894897223472 -99
643901894904908921 -109
643901894912594370 -116
643901894920279819 -131
643901894927965268 -114
643901894935650717 -77
643901894943336166 -65
643901894951021615 -75
643901894958707064 -87
643901894966392513 -89
643901894974077962 -87
643901894981763411 -77
643901894989448860 -63
643901894997134309 -55
643901895004819758 -58
643901895012505207 -55
643901895020190656 -53
643901895027876105 -53
643901895035561554 -53
643901895043247003 -51
643901895050932452 -51
643901895058587853 -53
643901895066273720 -53
643901895073959587 -46
643901895081645454 -38
643901895089331321 -41
643901895097017188 -43
643901895104703055 -38
643901895112388922 -36
643901895120074789 -41
643901895127760656 -43
643901895135446523 -43
643901895143132390 -48
643901895150818257 -51
643901895158504124 -53
643901895166189991 -55
643901895173875858 -46
643901895181561725 -17
643901895189247592 2
643901895196933459 0
643901895204619326 2
643901895212305193 9
643901895219991060 7
643901895227676927 -9
643901895235362794 -17
643901895243048661 -12
643901895250734528 -7
643901895258420395 -9
643901895266106262 -21
643901895273792129 -63
643901895281477996 -104
643901895289163863 29
643901895296849730 468
643901895304535597 1102
643901895312221464 1574
643901895319907331 1319
643901895327593198 400
643901895335279065 -187
643901895342964932 -131
643901895350650799 -80
643901895358336666 -182
643901895366022533 -172
643901895373708400 -131
643901895381394267 -155
643901895389080134 -155
643901895396766001 -123
643901895404451868 -119
643901895412137735 -114
643901895419823602 -97
643901895427509469 -85
643901895435195336 -75
643901895442881203 -55
643901895450567070 -29
643901895458252937 -9
643901895465938804 2
643901895473624671 29
643901895481310538 63
643901895488996405 94
643901895496682272 136
643901895504368139 189
643901895512054006 223
643901895519739873 245
643901895527425740 262
643901895535111607 259
643901895542797474 235
643901895550483341 179
643901895558169208 94
643901895565855075 14
643901895573540942 -43
643901895581226809 -92
643901895588912676 -133
643901895596598543 -160
643901895604284410 -162
643901895611970277 -160
643901895619686292 -162
643901895627371741 -165
643901895635057190 -160
643901895642742639 -143
643901895650428088 -133
643901895658113537 -136
643901895665798986 -136
643901895673484435 -131
643901895681169884 -131
643901895688855333 -126
643901895696540782 -111
643901895704226231 -104
643901895711911680 -106
643901895719597129 -99
643901895727282578 -89
643901895734968027 -87
643901895742653476 -87
643901895750338925 -80
643901895758024374 -75
643901895765709823 -77
643901895773395272 -72
643901895781080721 -68
643901895788766170 -70
643901895796451619 -70
643901895804137068 -63
643901895811822517 -60
643901895819507966 -68
643901895827193415 -65
643901895834878864 -51
643901895842564313 -46
643901895850249762 -48
643901895857935211 -46
643901895865620660 -43
643901895873306109 -43
643901895880991558 -51
643901895888677007 -53
643901895896362456 -53
643901895904047905 -53
643901895911733354 -60
643901895919418803 -46
643901895927104252 -14
643901895934789701 0
643901895942475150 2
643901895950160599 9
643901895957846048 9
643901895965531497 0
643901895973216946 -12
643901895980902395 -19
643901895988587844 -17
643901895996273293 -12
643901896003958742 -9
643901896011644191 -17
643901896019329640 -65
643901896027015089 -97
643901896034700538 94
643901896042385987 597
643901896050071436 1195
643901896057756885 1515
643901896065442334 1134
643901896073127783 240
643901896080813232 -247
643901896088498681 -138
643901896096184130 -80
643901896103869579 -170
643901896111555028 -153
643901896119240477 -119
643901896126925926 -140
643901896134611375 -133
643901896142296824 -106
643901896149982273 -104
643901896157667722 -92
643901896165353171 -68
643901896173038620 -55
643901896180724117 -48
643901896188409566 -29
643901896196095015 -9
643901896203780464 12
643901896211465913 38
643901896219151362 65
643901896226836811 94
643901896234522260 133
643901896242207709 179
643901896249893158 223
643901896257578607 257
643901896265264056 279
643901896272949505 289
643901896280634954 279
643901896288320403 242
643901896296005852 174
643901896303691301 87
643901896311376750 0
643901896319062199 -72
643901896326747648 -123
643901896334433097 -153
643901896342118546 -167
643901896349803995 -172
643901896357489444 -174
643901896365174893 -172
643901896372860342 -167
643901896380545791 -165
643901896388231240 -162
643901896395916689 -157
643901896403602138 -150
643901896411287587 -143
643901896418973036 -131
643901896426658485 -119
643901896434343934 -109
643901896442029383 -104
643901896449714832 -102
643901896457400281 -94
643901896465085730 -87
643901896472771179 -82
643901896480456628 -77
643901896488142077 -80
643901896495827526 -85
643901896503512975 -82
643901896511198424 -75
643901896518883873 -72
643901896526569322 -75
643901896534254771 -75
643901896541940220 -72
643901896549625669 -68
643901896557311118 -68
643901896564996567 -63
643901896572682016 -53
643901896580367465 -55
643901896588052914 -58
643901896595738363 -51
643901896603423812 -46
643901896611109261 -46
643901896618794710 -41
643901896626480159 -38
643901896634165608 -38
643901896641851057 -36
643901896649536506 -34
643901896657221955 -34
643901896664907404 -38
643901896672592853 -43
643901896680278302 -46
643901896687963751 -51
643901896695649200 -58
643901896703334649 -46
643901896711020098 -19
643901896718705547 -2
643901896726390996 2
643901896734076445 17
643901896741731846 26
643901896749417713 14
643901896757103580 -2
643901896764789447 -4
643901896772475314 -7
643901896780161181 -12
643901896787847048 -12
643901896795532915 -21
643901896803218782 -75
643901896810904649 -102
643901896818590516 94
643901896826276383 604
643901896833962250 1272
643901896841648117 1673
643901896849333984 1241
643901896857019851 264
643901896864705718 -223
643901896872391585 -116
643901896880077452 -94
643901896887763319 -199
643901896895449186 -174
643901896903135053 -140
643901896910820920 -165
643901896918506787 -160
643901896926192654 -133
643901896933878521 -128
643901896941564388 -126
643901896949250255 -111
643901896956936122 -97
643901896964621989 -80
643901896972307856 -63
643901896979993723 -43
643901896987679590 -29
643901896995365457 -12
643901897003051324 14
643901897010737191 51
643901897018423058 89
643901897026108925 126
643901897033794792 162
643901897041480659 196
643901897049166526 223
643901897056852393 235
643901897064538260 230
643901897072224127 211
643901897079909994 160
643901897087595861 80
643901897095281728 0
643901897102967595 -58
643901897110653462 -99
643901897118339329 -128
643901897126025196 -143
643901897133711063 -155
643901897141396930 -157
643901897149082797 -155
643901897156768664 -150
643901897164454531 -145
643901897172140398 -138
643901897179826265 -133
643901897187512132 -133
643901897195197999 -128
643901897202883866 -114
643901897210569733 -106
643901897218255600 -106
643901897225941467 -102
643901897233627334 -97
643901897241313201 -89
643901897248999068 -87
643901897256684935 -80
643901897264370802 -70
643901897272056669 -70
643901897279742536 -72
643901897287428403 -68
643901897295114270 -63
643901897302830289 -63
643901897310515738 -60
643901897318201187 -60
643901897325886636 -68
643901897333572085 -68
643901897341257534 -63
643901897348942983 -60
643901897356628432 -58
643901897364313881 -60
643901897371999330 -55
643901897379684779 -51
643901897387370228 -51
643901897395055677 -51
643901897402741126 -51
643901897410426575 -51
643901897418112024 -43
643901897425797473 -41
643901897433482922 -41
643901897441168371 -41
643901897448853820 -41
643901897456539269 -38
643901897464224718 -36
643901897471910167 -29
643901897479595616 -26
643901897487281065 -29
643901897494966514 -38
643901897502651963 -51
643901897510337412 -55
643901897518022861 -55
643901897525708310 -55
643901897533393759 -53
643901897541079208 -31
643901897548764657 -9
643901897556450106 0
643901897564135555 9
643901897571821004 17
643901897579506453 12
643901897587191902 -2
643901897594877351 -12
643901897602562800 -17
643901897610248249 -17
643901897617933698 -12
643901897625619147 -19
643901897633304596 -63
643901897640990045 -104
643901897648675494 29
643901897656360943 459
643901897664046392 1083
643901897671731841 1561
643901897679417290 1328
643901897687102739 420
643901897694788188 -194
643901897702473637 -162
643901897710159086 -104
643901897717844535 -201
643901897725529984 -206
643901897733215433 -172
643901897740900882 -187
643901897748586331 -184
643901897756271780 -162
643901897763957229 -157
643901897771642678 -153
643901897779328127 -138
643901897787013576 -121
643901897794699025 -106
643901897802384474 -87
643901897810069923 -68
643901897817755372 -46
643901897825440821 -21
643901897833126270 4
643901897840811719 41
643901897848497168 80
643901897856182617 116
643901897863853066 155
643901897871538724 189
643901897879224382 211
643901897886910040 221
643901897894595698 228
643901897902281356 216
643901897909967014 172
643901897917652672 104
643901897925338330 21
643901897933023988 -51
643901897940709646 -99
643901897948395304 -128
643901897956080962 -148
643901897963766620 -162
643901897971452278 -172
643901897979137936 -177
643901897986823594 -174
643901897994509252 -170
643901898002194910 -167
643901898009880568 -162
643901898017566226 -155
643901898025251884 -153
643901898032937542 -148
643901898040623200 -140
643901898048308858 -133
643901898055994516 -126
643901898063680174 -121
643901898071365832 -114
643901898079051490 -109
643901898086737148 -104
643901898094422806 -99
643901898102108464 -94
643901898109794122 -94
643901898117479780 -89
643901898125165438 -85
643901898132851096 -89
643901898140536754 -89
643901898148222412 -82
643901898155908070 -80
643901898163593728 -82
643901898171279386 -85
643901898178965044 -87
643901898186650702 -87
643901898194336360 -77
643901898202022018 -72
643901898209707676 -75
643901898217393334 -75
643901898225078992 -72
643901898232764650 -70
643901898240450308 -63
643901898248135966 -63
643901898255821624 -65
643901898263507282 -63
643901898271192940 -58
643901898278878598 -53
643901898286564256 -55
643901898294249914 -55
643901898301935572 -48
643901898309621230 -43
643901898317306888 -41
643901898324992546 -41
643901898332678204 -41
643901898340363862 -38
643901898348049520 -38
643901898355735178 -36
643901898363420836 -36
643901898371106494 -36
643901898378792152 -36
643901898386477810 -46
643901898394163468 -60
643901898401849126 -55
643901898409534784 -48
643901898417220442 -55
643901898424906151 -46
643901898432591809 -24
643901898440277467 -19
643901898447963125 -14
643901898455648783 -4
643901898463334441 -9
643901898471020099 -34
643901898478705757 -51
643901898486391415 -51
643901898494077073 -41
643901898501762731 -46
643901898509448389 -58
643901898517134047 -97
643901898524819705 -136
643901898532505363 12
643901898540191021 454
643901898547876679 1029
643901898555562337 1425
643901898563247995 1175
643901898570933653 323
643901898578619311 -240
643901898586304969 -187
643901898593990627 -116
643901898601676285 -206
643901898609361943 -206
643901898617047601 -165
643901898624733259 -177
643901898632418917 -182
643901898640104575 -162
643901898647790233 -148
643901898655475891 -140
643901898663161549 -128
643901898670847207 -114
643901898678532865 -97
643901898686218523 -80
643901898693904181 -58
643901898701589839 -34
643901898709275497 -9
643901898716961155 17
643901898724646813 53
643901898732332471 92
643901898740018129 133
643901898747703787 174
643901898755389445 211
643901898763075103 240
643901898770760761 255
643901898778446419 255
643901898786132077 242
643901898793817735 201
643901898801503393 128
643901898809189051 41
643901898816874709 -34
643901898824560367 -89
643901898832246025 -126
643901898839931683 -148
643901898847617341 -167
643901898855302999 -174
643901898862988657 -174
643901898870674315 -170
643901898878359973 -165
643901898886045631 -162
643901898893731289 -157
643901898901416947 -145
643901898909102605 -136
643901898916788263 -136
643901898924473921 -133
643901898932159579 -126
643901898939845237 -119
643901898947530895 -106
643901898955216553 -99
643901898962902211 -94
643901898970587869 -92
643901898978273527 -89
643901898985944186 -87
643901898993630053 -82
643901899001315920 -82
643901899009001787 -87
643901899016687654 -87
643901899024373521 -89
643901899032059388 -97
643901899039745255 -97
643901899047431122 -94
643901899055116989 -92
643901899062802856 -89
643901899070488723 -92
643901899078174590 -94
643901899085860457 -97
643901899093546324 -97
643901899101232191 -94
643901899108918058 -89
643901899116603925 -87
643901899124289792 -82
643901899131975659 -80
643901899139661526 -77
643901899147347393 -77
643901899155033260 -80
643901899162719127 -85
643901899170404994 -80
643901899178090861 -80
643901899185776728 -89
643901899193462595 -97
643901899201148462 -97
643901899208834329 -97
643901899216520196 -102
643901899224206063 -89
643901899231891930 -58
643901899239577797 -43
643901899247263664 -38
643901899254949531 -31
643901899262635398 -31
643901899270321265 -43
643901899278007132 -51
643901899285692999 -55
643901899293378866 -53
643901899301064733 -48
643901899308750600 -48
643901899316436467 -70
643901899324122334 -128
643901899331808201 -111
643901899339494068 172
643901899347179935 711
643901899354865802 1270
643901899362551669 1435
643901899370237536 842
643901899377923403 -4
643901899385609270 -272
643901899393295137 -136
643901899400981004 -153
643901899408666871 -228
643901899416352738 -191
643901899424038605 -177
643901899431724472 -194
643901899439410339 -174
643901899447096206 -155
643901899454782073 -153
643901899462467940 -138
643901899470153807 -119
643901899477839674 -106
643901899485525541 -89
643901899493211408 -70
643901899500897275 -53
643901899508583142 -29
643901899516269009 -4
643901899523954876 21
643901899531640743 60
643901899539326610 104
643901899547012529 145
643901899554698396 187
643901899562384263 221
643901899570070130 240
643901899577755997 242
643901899585441864 233
643901899593127731 196
643901899600813598 131
643901899608499465 48
643901899616185332 -31
643901899623871199 -102
643901899631557066 -153
643901899639242933 -179
643901899646928800 -194
643901899654614667 -206
643901899662300534 -206
643901899669986401 -201
643901899677672268 -199
643901899685358135 -196
643901899693044002 -191
643901899700729869 -184
643901899708415736 -172
643901899716101603 -165
643901899723787470 -160
643901899731473337 -150
643901899739159204 -143
643901899746845071 -138
643901899754530938 -128
643901899762216805 -119
643901899769902672 -114
643901899777588539 -111
643901899785274406 -109
643901899792960273 -104
643901899800646140 -102
643901899808332007 -99
643901899816017874 -99
643901899823703741 -99
643901899831389608 -99
643901899839075475 -97
643901899846761342 -92
643901899854447209 -87
643901899862133076 -87
643901899869818943 -87
643901899877504810 -85
643901899885190677 -85
643901899892876544 -85
643901899900562411 -87
643901899908248278 -87
643901899915934145 -82
643901899923620012 -80
643901899931305879 -82
643901899938991746 -85
643901899946677613 -85
643901899954363480 -80
643901899962049347 -75
643901899969735214 -72
643901899977421081 -70
643901899985106948 -68
643901899992792815 -72
643901900000478682 -85
643901900008164549 -85
643901900015850416 -82
643901900023536283 -89
643901900031222150 -92
643901900038908017 -65
643901900046593884 -36
643901900054279751 -29
643901900061965618 -24
643901900069651485 -12
643901900077337352 -14
643901900085023219 -29
643901900092709086 -38
643901900100394953 -38
643901900108080872 -31
643901900115766739 -26
643901900123452606 -31
643901900131138473 -75
643901900138824340 -123
643901900146510207 -14
643901900154196074 378
643901900161881941 971
643901900169567808 1469
643901900177253675 1340
643901900184939542 485
643901900192625409 -182
643901900200311276 -182
643901900207997143 -97
643901900215683010 -191
643901900223368877 -213
643901900231054744 -170
643901900238740611 -179
643901900246426478 -182
643901900254112345 -153
643901900261798212 -143
643901900269484079 -143
643901900277169946 -128
643901900284855813 -114
643901900292541680 -97
643901900300227547 -75
643901900307913414 -58
643901900315599281 -38
643901900323285148 -12
643901900330971015 17
643901900338656882 46
643901900346342749 82
643901900354028616 123
643901900361714483 162
643901900369400350 194
643901900377086217 218
643901900384772084 228
643901900392457951 218
643901900400143818 206
643901900407829685 170
643901900415515552 97
643901900423201419 17
643901900430887286 -51
643901900438573153 -106
643901900446259020 -145
643901900453944887 -160
643901900461630754 -170
643901900469316621 -182
643901900477002488 -187
643901900484688355 -182
643901900492374222 -170
643901900500060089 -165
643901900507745956 -157
643901900515431823 -148
643901900523117690 -145
643901900530803557 -143
643901900538489424 -136
643901900546175291 -128
643901900553861158 -123
643901900561547025 -116
643901900569232892 -109
643901900576918759 -104
643901900584604626 -99
643901900592290493 -97
643901900599976360 -92
643901900607662227 -85
643901900615348094 -80
643901900623033961 -82
643901900630719828 -85
643901900638405695 -80
643901900646091562 -77
643901900653777429 -77
643901900661463296 -82
643901900669149219 -82
643901900676835086 -75
643901900684520953 -75
643901900692206820 -80
643901900699892687 -77
643901900707578554 -75
643901900715264421 -77
643901900722950288 -77
643901900730636155 -75
643901900738322022 -77
643901900746007889 -80
643901900753693756 -75
643901900761379623 -65
643901900769065490 -60
643901900776751357 -65
643901900784437224 -63
643901900792123091 -60
643901900799808958 -68
643901900807494825 -72
643901900815180692 -70
643901900822866559 -72
643901900830552426 -77
643901900838238293 -58
643901900845924160 -31
643901900853610027 -19
643901900861295894 -9
643901900868981761 0
643901900876667628 -4
643901900884353495 -19
643901900892039362 -26
643901900899725229 -31
643901900907411096 -34
643901900915096963 -26
643901900922782830 -24
643901900930468697 -51
643901900938154564 -104
643901900945840431 -65
643901900953526298 238
643901900961212165 774
643901900968898032 1319
643901900976583899 1418
643901900984269766 755
643901900991955633 -21
643901900999641500 -187
643901901007327367 -82
643901901015013234 -148
643901901022699101 -206
643901901030384968 -170
643901901038070835 -165
643901901045756702 -174
643901901053442569 -153
643901901061128436 -138
643901901068814303 -133
643901901076500170 -123
643901901084186037 -106
643901901091871904 -89
643901901099557771 -70
643901901107243638 -53
643901901114929505 -36
643901901122615372 -19
643901901130301239 7
643901901137987106 41
643901901145672973 75
643901901153358840 114
643901901161044707 157
643901901168730574 194
643901901176416441 213
643901901184102308 221
643901901191788175 233
643901901199474042 233
643901901207159909 196
643901901214845776 133
643901901222531643 53
643901901230232610 -24
643901901237918268 -77
643901901245603926 -114
643901901253289584 -145
643901901260975242 -160
643901901268660900 -160
643901901276346558 -162
643901901284032216 -167
643901901291717874 -157
643901901299403532 -145
643901901307089190 -143
643901901314774848 -133
643901901322460506 -123
643901901330146164 -126
643901901337831822 -121
643901901345517480 -109
643901901353203138 -102
643901901360888796 -97
643901901368574454 -89
643901901376260112 -85
643901901383945770 -85
643901901391631428 -85
643901901399317086 -85
643901901407002744 -75
643901901414688402 -68
643901901422374060 -68
643901901430059718 -72
643901901437745376 -70
643901901445431034 -68
643901901453116692 -63
643901901460802350 -58
643901901468488008 -55
643901901476173666 -60
643901901483859324 -60
643901901491544982 -55
643901901499230640 -60
643901901506916298 -63
643901901514601956 -58
643901901522287614 -55
643901901529973272 -60
643901901537658930 -65
643901901545344588 -65
643901901553030246 -68
643901901560715904 -65
643901901568401562 -60
643901901576087220 -72
643901901583772878 -87
643901901591458536 -82
643901901599144194 -80
643901901606829852 -87
643901901614515510 -68
643901901622201168 -41
643901901629886826 -36
643901901637572484 -31
643901901645258142 -19
643901901652943800 -19
643901901660629458 -29
643901901668315116 -36
643901901676000774 -38
643901901683686432 -38
643901901691372090 -36
643901901699057748 -31
643901901706743406 -43
643901901714429064 -102
643901901722114722 -97
643901901729800380 172
643901901737486038 689
643901901745171696 1212
643901901752857354 1350
643901901760543012 804
643901901768228670 21
643901901775914328 -230
643901901783599986 -99
643901901791285696 -111
643901901798971354 -187
643901901806657012 -155
643901901814342670 -131
643901901822028328 -143
643901901829713986 -131
643901901837399644 -109
643901901845085302 -104
643901901852770960 -97
643901901860456618 -82
643901901868142276 -70
643901901875827934 -63
643901901883513592 -53
643901901891199250 -29
643901901898884908 0
643901901906570566 26
643901901914256224 60
643901901921941882 97
643901901929627540 136
643901901937313198 182
643901901944998856 225
643901901952684514 259
643901901960370172 276
643901901968055830 281
643901901975741488 274
643901901983427146 240
643901901991112804 177
643901901998798462 87
643901902006484120 2
643901902014169778 -60
643901902021855436 -106
643901902029541094 -143
643901902037226752 -167
643901902044912410 -174
643901902052598068 -174
643901902060283726 -174
643901902067969384 -172
643901902075655042 -165
643901902083340700 -157
643901902091026358 -148
643901902098712016 -138
643901902106397674 -133
643901902114083332 -128
643901902121768990 -121
643901902129454648 -114
643901902137140306 -106
643901902144825964 -99
643901902152511622 -94
643901902160197280 -87
643901902167882938 -85
643901902175568596 -87
643901902183254254 -82
643901902190939912 -75
643901902198625570 -72
643901902206311228 -75
643901902213996886 -72
643901902221682544 -70
643901902229368202 -72
643901902237053860 -75
643901902244739518 -70
643901902252425176 -65
643901902260110834 -65
643901902267796492 -63
643901902275482150 -58
643901902283167808 -55
643901902290853466 -53
643901902298539124 -48
643901902306224782 -48
643901902313910440 -48
643901902321596098 -46
643901902329281756 -51
643901902336967414 -63
643901902344653072 -65
643901902352323730 -60
643901902360009597 -60
643901902367695464 -53
643901902375381331 -24
643901902383067198 -9
643901902390753065 -7
643901902398438932 0
643901902406124799 4
643901902413810666 -7
643901902421496533 -24
643901902429182400 -34
643901902436868267 -29
643901902444554134 -24
643901902452240001 -29
643901902459925868 -41
643901902467611735 -89
643901902475297602 -106
643901902482983469 106
643901902490669336 609
643901902498355203 1209
643901902506041070 1513
643901902513726937 1056
643901902521412804 160
643901902529098671 -242
643901902536784538 -133
643901902544470405 -128
643901902552156272 -221
643901902559842139 -196
643901902567528006 -174
643901902575213873 -199
643901902582899740 -187
643901902590585607 -160
643901902598271474 -155
643901902605957341 -148
643901902613643208 -133
643901902621329075 -116
643901902629014942 -97
643901902636700809 -75
643901902644386676 -55
643901902652072543 -34
643901902659758410 -9
643901902667444277 21
643901902675130144 60
643901902682816011 104
643901902690501878 148
643901902698187745 191
643901902705873612 223
643901902713559479 240
643901902721245346 247
643901902728931213 242
643901902736617080 213
643901902744302947 155
643901902751988814 75
643901902759674681 -9
643901902767360548 -70
643901902775046415 -109
643901902782732282 -136
643901902790418149 -153
643901902798104016 -155
643901902805789883 -157
643901902813475750 -160
643901902821161617 -157
643901902828847484 -148
643901902836533351 -140
643901902844219218 -136
643901902851905085 -133
643901902859590952 -126
643901902867276819 -116
643901902874962686 -111
643901902882648553 -109
643901902890334420 -102
643901902898020287 -94
643901902905706154 -92
643901902913392073 -85
643901902921077940 -80
643901902928763807 -82
643901902936449674 -82
643901902944135541 -75
643901902951821408 -77
643901902959507275 -80
643901902967193142 -77
643901902974879009 -77
643901902982564876 -82
643901902990250743 -80
643901902997936610 -75
643901903005622477 -72
643901903013308344 -68
643901903020994211 -65
643901903028680078 -65
643901903036365945 -65
643901903044051812 -63
643901903051737679 -60
643901903059423546 -60
643901903067109413 -60
643901903074795280 -58
643901903082481147 -58
643901903090167014 -58
643901903097852881 -65
643901903105538748 -77
643901903113224615 -75
643901903120910482 -72
643901903128596349 -72
643901903136282216 -53
643901903143968083 -24
643901903151653950 -12
643901903159339817 -9
643901903167025684 0
643901903174711551 2
643901903182397418 -12
643901903190083285 -29
643901903197769152 -31
643901903205455019 -26
643901903213140886 -21
643901903220826753 -24
643901903228512620 -46
643901903236198487 -106
643901903243884354 -114
643901903251570221 123
643901903259256088 643
643901903266941955 1246
643901903274627822 1501
643901903282313689 961
643901903289999556 77
643901903297685423 -242
643901903305371290 -121
643901903313057157 -143
643901903320743024 -225
643901903328428891 -189
643901903336114758 -174
643901903343800625 -194
643901903351486492 -177
643901903359172359 -155
643901903366858226 -153
643901903374544093 -145
643901903382229960 -123
643901903389915827 -106
643901903397601694 -89
643901903405287561 -70
643901903412973428 -51
643901903420659295 -29
643901903428345162 2
643901903436031029 34
643901903443716896 65
643901903451402763 102
643901903459088630 143
643901903466774497 187
643901903474460416 221
643901903482146283 238
643901903489832150 245
643901903497518017 238
643901903505203884 204
643901903512889751 140
643901903520575618 55
643901903528261485 -26
643901903535947352 -85
643901903543633219 -123
643901903551319086 -155
643901903559004953 -174
643901903566690820 -182
643901903574376687 -182
643901903582062554 -182
643901903589748421 -182
643901903597434288 -172
643901903605120155 -162
643901903612806022 -157
643901903620491889 -157
643901903628177756 -155
643901903635863623 -145
643901903643549490 -133
643901903651235357 -126
643901903658921224 -121
643901903666607091 -116
643901903674292958 -114
643901903681978825 -111
643901903689664692 -102
643901903697350559 -94
643901903705036426 -92
643901903712722293 -87
643901903720408160 -82
643901903728094027 -85
643901903735779894 -80
643901903743465761 -75
643901903751151628 -75
643901903758837495 -75
643901903766523362 -72
643901903774209229 -68
643901903781895096 -68
643901903789580963 -68
643901903797266830 -65
643901903804952697 -60
643901903812638564 -55
643901903820324431 -55
643901903828010298 -53
643901903835696165 -51
643901903843382032 -48
643901903851067899 -41
643901903858753766 -34
643901903866439633 -34
643901903874125500 -36
643901903881811367 -34
643901903889497234 -31
643901903897183101 -34
643901903904868968 -38
643901903912554835 -43
643901903920240702 -43
643901903927926569 -46
643901903935612436 -46
643901903943298303 -29
643901903950984170 -4
643901903958670037 4
643901903966355904 7
643901903974041771 14
643901903981727638 7
643901903989413505 -9
643901903997099372 -24
643901904004785239 -31
643901904012471106 -34
643901904020156973 -34
643901904027842840 -41
643901904035528763 -75
643901904043214630 -131
643901904050900497 -94
643901904058586364 208
643901904066272231 757
643901904073958098 1328
643901904081643965 1433
643901904089329832 733
643901904097015699 -80
643901904104701566 -250
643901904112387433 -133
643901904120073300 -199
643901904127759167 -259
643901904135445034 -216
643901904143130901 -211
643901904150816768 -228
643901904158502635 -206
643901904166188502 -184
643901904173874369 -182
643901904181560236 -170
643901904189246103 -148
643901904196931970 -131
643901904204617837 -116
643901904212303704 -92
643901904219989571 -70
643901904227675438 -48
643901904235361305 -19
643901904243047172 14
643901904250733039 46
643901904258418906 87
643901904266104773 133
643901904273790640 170
643901904281476507 199
643901904289162374 216
643901904296848241 221
643901904304534108 213
643901904312219975 184
643901904319905842 119
643901904327591709 31
643901904335277576 -51
643901904342963443 -106
643901904350649310 -145
643901904358335177 -167
643901904366021044 -179
643901904373706911 -191
643901904381392778 -199
643901904389078645 -194
643901904396764512 -189
643901904404450379 -182
643901904412136246 -170
643901904419822113 -165
643901904427507980 -160
643901904435193847 -155
643901904442879714 -145
643901904450565581 -136
643901904458251448 -126
643901904465937315 -119
643901904473623182 -114
643901904481309049 -109
643901904488994916 -104
643901904496680783 -99
643901904504366650 -94
643901904512052517 -92
643901904519738384 -92
643901904527424251 -89
643901904535110118 -85
643901904542795985 -80
643901904550481852 -82
643901904558167719 -82
643901904565853586 -82
643901904573539453 -87
643901904581225320 -89
643901904588911187 -89
643901904596597106 -89
643901904604282973 -85
643901904611968840 -82
643901904619654707 -80
643901904627340574 -77
643901904635026441 -72
643901904642712308 -68
643901904650398175 -65
643901904658084042 -65
643901904665769909 -63
643901904673455776 -63
643901904681141643 -65
643901904688827510 -65
643901904696513377 -63
643901904704199244 -58
643901904711885111 -55
643901904719570978 -63
643901904727256845 -75
643901904734942712 -77
643901904742628579 -82
643901904750314446 -80
643901904758000313 -55
643901904765686180 -26
643901904773372047 -24
643901904781057914 -21
643901904788743781 -4
643901904796429648 -7
643901904804115515 -26
643901904811801382 -41
643901904819487249 -43
643901904827173116 -41
643901904834858983 -43
643901904842544850 -46
643901904850230717 -70
643901904857916584 -123
643901904865602451 -72
643901904873288318 262
643901904880974185 813
643901904888660052 1294
643901904896345919 1297
643901904904031786 614
643901904911717653 -111
643901904919403520 -235
643901904927089387 -114
643901904934775254 -160
643901904942461121 -206
643901904950146988 -165
643901904957832855 -167
643901904965518722 -182
643901904973204589 -153
643901904980890456 -131
643901904988576323 -138
643901904996262190 -123
643901905003948057 -97
643901905011633924 -80
643901905019319791 -72
643901905027005658 -58
643901905034691525 -31
643901905042377392 -4
643901905050063259 19
643901905057749126 58
643901905065434993 97
643901905073120860 131
643901905080806727 170
643901905088492594 211
643901905096178461 242
643901905103864328 259
643901905111550195 267
643901905119236062 255
643901905126921929 206
643901905134607796 128
643901905142293663 41
643901905149979530 -38
643901905157695545 -99
643901905165380994 -140
643901905173066443 -172
643901905180751892 -189
643901905188437341 -189
643901905196122790 -189
643901905203808239 -187
643901905211493688 -187
643901905219179137 -194
643901905226864586 -182
643901905234550035 -157
643901905242235484 -148
643901905249920933 -150
643901905257606382 -145
643901905265291831 -128
643901905272977280 -119
643901905280662729 -116
643901905288348178 -109
643901905296033627 -102
643901905303719076 -99
643901905311404525 -99
643901905319089974 -99
643901905326775423 -92
643901905334460872 -87
643901905342146321 -85
643901905349831770 -87
643901905357517219 -85
643901905365202668 -80
643901905372888117 -72
643901905380573566 -75
643901905388259015 -77
643901905395944464 -75
643901905403629913 -72
643901905411315362 -72
643901905419000811 -68
643901905426686260 -70
643901905434371709 -75
643901905442057158 -68
643901905449742607 -60
643901905457428056 -60
643901905465113505 -60
643901905472798954 -55
643901905480484403 -53
643901905488169852 -53
643901905495855301 -51
643901905503540750 -46
643901905511226199 -41
643901905518911648 -38
643901905526597097 -36
643901905534282546 -36
643901905541967995 -36
643901905549653444 -46
643901905557338893 -55
643901905565024342 -55
643901905572709791 -55
643901905580395240 -65
643901905588080689 -53
643901905595766138 -26
643901905603451587 -12
643901905611137036 -9
643901905618822485 -4
643901905626507934 -9
643901905634193383 -21
643901905641878832 -34
643901905649564281 -41
643901905657249730 -36
643901905664935179 -36
643901905672620628 -43
643901905680306077 -65
643901905687991526 -114
643901905695676975 -75
643901905703362424 242
643901905711047873 811
643901905718703274 1387
643901905726389141 1472
643901905734075008 753
643901905741760875 -63
643901905749446742 -218
643901905757132609 -104
643901905764818476 -174
643901905772504343 -238
643901905780190210 -201
643901905787876077 -196
643901905795561944 -206
643901905803247811 -189
643901905810933678 -179
643901905818619545 -174
643901905826305412 -157
643901905833991279 -140
643901905841677146 -128
643901905849363013 -111
643901905857048880 -92
643901905864734747 -68
643901905872420614 -38
643901905880106481 -12
643901905887792348 12
643901905895478215 48
643901905903164082 92
643901905910849949 133
643901905918535816 174
643901905926221683 208
643901905933907550 223
643901905941593417 228
643901905949279284 223
643901905956965151 187
643901905964651018 119
643901905972336885 36
643901905980022752 -36
643901905987708619 -92
643901905995394486 -133
643901906003080353 -160
643901906010766220 -170
643901906018452087 -174
643901906026137954 -179
643901906033823821 -177
643901906041509688 -167
643901906049195555 -165
643901906056881422 -165
643901906064567289 -155
643901906072253156 -145
643901906079939023 -145
643901906087624890 -145
643901906095310757 -138
643901906102996624 -126
643901906110682491 -119
643901906118368358 -114
643901906126054225 -114
643901906133740092 -106
643901906141425959 -99
643901906149111826 -97
643901906156797693 -92
643901906164483560 -82
643901906172169427 -80
643901906179855294 -85
643901906187541161 -85
643901906195227028 -80
643901906202912895 -80
643901906210598762 -80
643901906218284629 -80
643901906225970496 -80
643901906233656363 -75
643901906241342230 -70
643901906249028097 -70
643901906256713964 -70
643901906264399831 -65
643901906272085698 -65
643901906279771617 -63
643901906287457484 -63
643901906295143351 -63
643901906302829218 -63
643901906310515085 -60
643901906318200952 -63
643901906325886819 -70
643901906333572686 -68
643901906341258553 -63
643901906348944420 -58
643901906356630287 -58
643901906364316154 -60
643901906372002021 -65
643901906379687888 -70
643901906387373755 -80
643901906395059622 -82
643901906402745489 -82
643901906410431356 -87
643901906418117223 -82
643901906425803090 -58
643901906433488957 -36
643901906441174824 -29
643901906448860691 -19
643901906456546558 -14
643901906464232425 -29
643901906471918292 -46
643901906479604159 -53
643901906487290026 -53
643901906494975893 -48
643901906502661760 -48
643901906510347627 -58
643901906518033494 -104
643901906525719361 -128
643901906533405228 68
643901906541091095 546
643901906548776962 1149
643901906556462829 1498
643901906564148696 1093
643901906571834563 201
643901906579520430 -230
643901906587206297 -145
643901906594892164 -148
643901906602578031 -238
643901906610263898 -208
643901906617949765 -184
643901906625635632 -206
643901906633321499 -191
643901906641007366 -167
643901906648693233 -165
643901906656379100 -153
643901906664064967 -133
643901906671750834 -121
643901906679436701 -106
643901906687122568 -87
643901906694808435 -65
643901906702494302 -38
643901906710180169 -14
643901906717866036 12
643901906725551903 46
643901906733237770 82
643901906740923637 123
643901906748609504 167
643901906756295371 204
643901906763981238 223
643901906771667105 233
643901906779352972 228
643901906787038839 204
643901906794724706 148
643901906802410573 70
643901906810096440 -9
643901906817782307 -75
643901906825468174 -126
643901906833154041 -160
643901906840839960 -179
643901906848525827 -184
643901906856211694 -184
643901906863897561 -184
643901906871583428 -182
643901906879269295 -179
643901906886955162 -174
643901906894641029 -167
643901906902326896 -162
643901906910012763 -155
643901906917698630 -150
643901906925384497 -145
643901906933070364 -136
643901906940756231 -128
643901906948442098 -121
643901906956127965 -116
643901906963813832 -111
643901906971499699 -104
643901906979185566 -99
643901906986871433 -97
643901906994557300 -94
643901907002243167 -92
643901907009929034 -92
643901907017614901 -92
643901907025300768 -89
643901907032986635 -87
643901907040672502 -87
643901907048358369 -89
643901907056044236 -89
643901907063730103 -87
643901907071415970 -87
643901907079101837 -89
643901907086787704 -87
643901907094473571 -89
643901907102159438 -97
643901907109845305 -92
643901907117531172 -87
643901907125217039 -87
643901907132902906 -89
643901907140588773 -89
643901907148274640 -92
643901907155960507 -92
643901907163646374 -94
643901907171332241 -94
643901907179018108 -89
643901907186703975 -92
643901907194389842 -92
643901907202075709 -89
643901907209761576 -85
643901907217447443 -92
643901907225133310 -97
643901907232819177 -94
643901907240505044 -94
643901907248190911 -89
643901907255876778 -65
643901907263562645 -43
643901907271248512 -36
643901907278934379 -26
643901907286620246 -19
643901907294306113 -29
643901907301991980 -41
643901907309677847 -46
643901907317363714 -46
643901907325049581 -43
643901907332735448 -41
643901907340421315 -46
643901907348107182 -89
643901907355793049 -126
643901907363478916 29
643901907371164783 466
643901907378850650 1034
643901907386536517 1413
643901907394222384 1158
643901907401908307 325
643901907409594174 -221
643901907417280041 -170
643901907424965908 -102
643901907432651775 -187
643901907440337642 -182
643901907448023509 -148
643901907455709376 -162
643901907463395243 -162
643901907471081110 -143
643901907478766977 -133
643901907486452844 -121
643901907494138711 -102
643901907501824578 -89
643901907509510445 -82
643901907517196312 -70
643901907524882179 -51
643901907532568046 -29
643901907540253913 0
643901907547939780 38
643901907555625647 75
643901907563311514 109
643901907570997381 155
643901907578683248 199
643901907586369115 233
643901907594054982 264
643901907601740849 276
643901907609426716 269
643901907617112583 252
643901907624798450 208
643901907632484317 119
643901907640170184 24
643901907647856051 -43
643901907655541918 -102
643901907663227785 -145
643901907670913652 -170
643901907678599519 -182
643901907686285386 -179
643901907693971253 -172
643901907701657120 -172
643901907709342987 -174
643901907717028854 -165
643901907724714721 -157
643901907732400588 -153
643901907740086455 -143
643901907747772322 -136
643901907755458189 -128
643901907763144056 -114
643901907770829923 -106
643901907778515790 -99
643901907786201657 -92
643901907793887524 -94
643901907801573391 -89
643901907809259258 -77
643901907816945125 -75
643901907824630992 -80
643901907832316859 -72
643901907840002726 -68
643901907847688593 -72
643901907855374460 -70
643901907863060327 -60
643901907870746194 -65
643901907878432061 -77
643901907886117928 -80
643901907893803795 -72
643901907901489662 -68
643901907909175529 -68
643901907916861396 -68
643901907924547263 -63
643901907932233130 -60
643901907939918997 -65
643901907947604864 -68
643901907955290731 -65
643901907962976650 -68
643901907970662517 -80
643901907978348384 -87
643901907986034251 -87
643901907993720118 -82
643901908001405985 -85
643901908009091852 -72
643901908016777719 -48
643901908024463586 -43
643901908032149453 -46
643901908039835320 -31
643901908047521187 -29
643901908055207054 -48
643901908062892921 -53
643901908070578788 -46
643901908078264655 -46
643901908085950522 -46
643901908093636389 -38
643901908101322256 -51
643901908109008123 -116
643901908116693990 -104
643901908124379857 213
643901908132065724 804
643901908139751591 1362
643901908147437458 1450
643901908155123325 782
643901908162809192 -68
643901908170495059 -289
643901908178180926 -138
643901908185866793 -155
643901908193552660 -213
643901908201238527 -172
643901908208924394 -170
643901908216610261 -189
643901908224296128 -162
643901908231981995 -138
643901908239667862 -136
643901908247353729 -126
643901908255039596 -109
643901908262725463 -99
643901908270411330 -82
643901908278097197 -53
643901908285783064 -26
643901908293468931 -12
643901908301154798 12
643901908308840665 63
643901908316526532 111
643901908324212399 148
643901908331898266 201
643901908339584133 272
643901908347270000 315
643901908354955867 327
643901908362641734 335
643901908370327601 332
643901908378013468 286
643901908385699335 191
643901908393385202 75
643901908401071069 -31
643901908408756936 -104
643901908416442803 -150
643901908424128670 -179
643901908431814537 -199
643901908439500404 -211
643901908447186271 -213
643901908454872138 -208
643901908462558005 -201
643901908470243872 -196
643901908477929739 -189
643901908485615606 -184
643901908493301473 -174
643901908500987340 -157
643901908508673207 -150
643901908516359074 -150
643901908524044993 -140
643901908531730860 -128
643901908539416727 -123
643901908547102594 -114
643901908554788461 -104
643901908562474328 -99
643901908570160195 -104
643901908577846062 -111
643901908585531929 -114
643901908593217796 -109
643901908600903663 -106
643901908608589530 -109
643901908616275397 -114
643901908623961264 -116
643901908631647131 -114
643901908639332998 -109
643901908647018865 -104
643901908654704732 -99
643901908662390599 -97
643901908670076466 -94
643901908677762333 -92
643901908685448200 -97
643901908693134067 -104
643901908700819934 -102
643901908708505801 -102
643901908716191668 -111
643901908723877535 -109
643901908731563402 -85
643901908739249269 -60
643901908746935136 -51
643901908754621003 -46
643901908762306870 -48
643901908769992737 -53
643901908777678604 -51
643901908785364471 -55
643901908793050338 -60
643901908800736205 -51
643901908808422072 -48
643901908816107939 -55
643901908823793806 -87
643901908831479673 -145
643901908839165540 -70
643901908846851407 327
643901908854537274 966
643901908862223141 1532
643901908869909008 1510
643901908877594875 653
643901908885280742 -184
643901908892966609 -259
643901908900652476 -109
643901908908338343 -191
643901908916024210 -238
643901908923710077 -189
643901908931395944 -196
643901908939081811 -206
643901908946767678 -179
643901908954453545 -162
643901908962139412 -157
643901908969825279 -143
643901908977511146 -123
643901908985197013 -106
643901908992882880 -92
643901909000568747 -75
643901909008254614 -55
643901909015940481 -29
643901909023626348 4
643901909031312215 41
643901909038998082 80
643901909046683949 138
643901909054369816 196
643901909062055683 235
643901909069741550 264
643901909077427417 279
643901909085113336 274
643901909092799203 252
643901909100485070 196
643901909108170937 99
643901909115856804 -4
643901909123542671 -89
643901909131228538 -145
643901909138914405 -179
643901909146600272 -196
643901909154286139 -204
643901909161972006 -208
643901909169657873 -211
643901909177343740 -211
643901909185029607 -204
643901909192715474 -196
643901909200401341 -194
643901909208087208 -184
643901909215773075 -167
643901909223458942 -162
643901909231144809 -162
643901909238830676 -153
643901909246516543 -140
643901909254202410 -133
643901909261888277 -131
643901909269574144 -131
643901909277260011 -128
643901909284945878 -119
643901909292631745 -102
643901909300317612 -97
643901909308003479 -104
643901909315689346 -99
643901909323375213 -97
643901909331061080 -99
643901909338746947 -94
643901909346432814 -87
643901909354118681 -87
643901909361804548 -85
643901909369490415 -80
643901909377176282 -80
643901909384862149 -80
643901909392548016 -80
643901909400233883 -82
643901909407919750 -85
643901909415605617 -85
643901909423291484 -89
643901909430977351 -99
643901909438663218 -89
643901909446349085 -53
643901909454034952 -26
643901909461720819 -19
643901909469406686 -12
643901909477092553 -9
643901909484778420 -17
643901909492464287 -31
643901909500150154 -41
643901909507836021 -38
643901909515521888 -29
643901909523207755 -29
643901909530893622 -43
643901909538579489 -92
643901909546265356 -143
643901909553951223 19
643901909561637090 553
643901909569322957 1338
643901909577008824 1909
643901909584694691 1552
643901909592380558 412
643901909600066425 -267
643901909607752292 -177
643901909615438159 -131
643901909623124026 -274
643901909630809893 -269
643901909638495760 -216
643901909646181679 -238
643901909653867546 -235
643901909661553413 -204
643901909669239280 -196
643901909676925147 -194
643901909684611014 -177
643901909692296881 -174
643901909699982748 -174
643901909707668615 -140
643901909715354482 -94
643901909723040349 -80
643901909730726216 -65
643901909738412083 -21
643901909746097950 7
643901909753783817 34
643901909761469684 82
643901909769155551 128
643901909776841418 155
643901909784527285 184
643901909792213152 208
643901909799899019 201
643901909807584886 160
643901909815270753 97
643901909822956620 12
643901909830642487 -68
643901909838328354 -121
643901909846014221 -153
643901909853700088 -179
643901909861385955 -201
643901909869071822 -206
643901909876757689 -201
643901909884443556 -196
643901909892129423 -196
643901909899815290 -191
643901909907501157 -179
643901909915187024 -167
643901909922872891 -165
643901909930558758 -167
643901909938244625 -157
643901909945930492 -145
643901909953616359 -138
643901909961302226 -133
643901909968988093 -126
643901909976673960 -123
643901909984359827 -123
643901909992045694 -121
643901909999731561 -111
643901910007417428 -99
643901910015103295 -94
643901910022789162 -99
643901910030475029 -102
643901910038160896 -92
643901910045846763 -85
643901910053532630 -87
643901910061218497 -89
643901910068904364 -80
643901910076590231 -72
643901910084276098 -75
643901910091961965 -75
643901910099647832 -68
643901910107333699 -68
643901910115019566 -82
643901910122705433 -97
643901910130391300 -104
643901910138077167 -109
643901910145763034 -102
643901910153448901 -75
643901910161134768 -43
643901910168820635 -29
643901910176506502 -14
643901910184192369 -9
643901910191878236 -17
643901910199564103 -34
643901910207280122 -46
643901910214965571 -41
643901910222651020 -31
643901910230336469 -31
643901910238021918 -51
643901910245707367 -111
643901910253392816 -162
643901910261078265 17
643901910268763714 621
643901910276449163 1520
643901910284134612 2101
643901910291820061 1634
643901910299505510 446
643901910307190959 -213
643901910314876408 -155
643901910322561857 -162
643901910330247306 -306
643901910337932755 -281
643901910345618204 -230
643901910353303653 -259
643901910360989102 -259
643901910368674551 -230
643901910376360000 -230
643901910384045449 -228
643901910391730898 -204
643901910399416347 -187
643901910407101796 -179
643901910414787245 -165
643901910422472694 -140
643901910430158143 -121
643901910437843592 -102
643901910445529041 -75
643901910453214490 -41
643901910460899939 -4
643901910468585388 38
643901910476270837 85
643901910483956286 116
643901910491641735 133
643901910499327184 150
643901910507012633 148
643901910514698082 114
643901910522383531 55
643901910530068980 -9
643901910537754429 -75
643901910545439878 -128
643901910553125327 -165
643901910560810776 -187
643901910568496225 -191
643901910576181674 -196
643901910583867123 -196
643901910591552572 -184
643901910599238021 -177
643901910606923470 -174
643901910614608919 -172
643901910622294368 -172
643901910629979817 -167
643901910637665266 -162
643901910645350715 -160
643901910653036164 -155
643901910660721613 -138
643901910668407062 -128
643901910676092511 -128
643901910683777960 -123
643901910691463409 -116
643901910699148858 -111
643901910706834307 -104
643901910714519756 -99
643901910722205205 -94
643901910729890654 -89
643901910737576103 -89
643901910745261552 -89
643901910752947001 -80
643901910760632450 -72
643901910768287851 -75
643901910775973718 -80
643901910783659585 -80
643901910791345452 -77
643901910799031319 -75
643901910806717186 -72
643901910814403053 -70
643901910822088920 -68
643901910829774787 -65
643901910837460654 -70
643901910845146521 -77
643901910852832388 -85
643901910860518255 -94
643901910868204122 -99
643901910875889989 -94
643901910883575856 -89
643901910891261723 -80
643901910898947590 -51
643901910906633457 -34
643901910914319324 -24
643901910922005191 -2
643901910929691058 4
643901910937376925 -14
643901910945062792 -34
643901910952748659 -31
643901910960434526 -19
643901910968120393 -21
643901910975806260 -34
643901910983492127 -65
643901910991177994 -128
643901910998863861 -65
643901911006549728 371
643901911014235595 1163
643901911021921462 1892
643901911029607329 1846
643901911037293196 828
643901911044979063 -106
643901911052664930 -204
643901911060350797 -94
643901911068036664 -225
643901911075722531 -276
643901911083408398 -211
643901911091094265 -221
643901911098780132 -240
643901911106465999 -211
643901911114151866 -196
643901911121837733 -189
643901911129523600 -167
643901911137209467 -153
643901911144895334 -148
643901911152581201 -138
643901911160267068 -121
643901911167952935 -97
643901911175638802 -65
643901911183324669 -31
643901911191010536 0
643901911198696403 36
643901911206382270 77
643901911214068137 123
643901911221754004 160
643901911229439871 187
643901911237125738 208
643901911244811605 211
643901911252497472 184
643901911260183339 136
643901911267869206 58
643901911275555073 -31
643901911283240940 -102
643901911290926807 -143
643901911298612674 -177
643901911306298541 -201
643901911313984408 -208
643901911321670275 -213
643901911329356194 -211
643901911337042061 -199
643901911344727928 -189
643901911352413795 -184
643901911360099662 -174
643901911367785529 -165
643901911375471396 -157
643901911383157263 -155
643901911390843130 -150
643901911398528997 -145
643901911406214864 -140
643901911413900731 -133
643901911421586598 -131
643901911429272465 -138
643901911436958332 -136
643901911444644199 -121
643901911452330066 -116
643901911460015933 -116
643901911467701800 -111
643901911475387667 -116
643901911483073534 -119
643901911490759401 -106
643901911498445268 -102
643901911506131135 -99
643901911513817002 -89
643901911521502869 -92
643901911529188736 -99
643901911536874603 -94
643901911544560470 -80
643901911552246337 -75
643901911559932204 -75
643901911567618071 -75
643901911575303938 -75
643901911582989805 -75
643901911590675672 -70
643901911598361539 -72
643901911606047406 -77
643901911613733273 -75
643901911621419140 -77
643901911629105007 -87
643901911636790874 -70
643901911644476741 -38
643901911652162608 -29
643901911659848475 -26
643901911667534342 -12
643901911675220209 -12
643901911682906076 -31
643901911690591943 -36
643901911698277810 -26
643901911705963677 -19
643901911713649544 -26
643901911721335411 -36
643901911729021278 -63
643901911736707145 -106
643901911744393012 -12
643901911752078879 422
643901911759764746 1093
643901911767450613 1612
643901911775136480 1467
643901911782822347 551
643901911790508214 -204
643901911798194081 -208
643901911805879948 -85
643901911813565815 -179
643901911821251682 -206
643901911828937549 -155
643901911836623416 -165
643901911844309283 -174
643901911851995150 -148
643901911859681017 -133
643901911867366884 -128
643901911875052751 -111
643901911882738618 -94
643901911890404449 -82
643901911898090595 -63
643901911905776741 -41
643901911913462887 -17
643901911921149033 12
643901911928835179 38
643901911936521325 75
643901911944207471 121
643901911951893617 170
643901911959579763 216
643901911967265909 252
643901911974952055 274
643901911982638201 274
643901911990324347 267
643901911998010493 250
643901912005696639 189
643901912013382785 87
643901912021068931 -12
643901912028755077 -92
643901912036441223 -150
643901912044127369 -182
643901912051813515 -194
643901912059499661 -199
643901912067185807 -201
643901912074871953 -204
643901912082558099 -204
643901912090244245 -199
643901912097930391 -187
643901912105616537 -177
643901912113302683 -174
643901912120988829 -170
643901912128674975 -160
643901912136361121 -148
643901912144047267 -140
643901912151733413 -138
643901912159419559 -136
643901912167105705 -128
643901912174791851 -119
643901912182477997 -116
643901912190164143 -119
643901912197850289 -116
643901912205536435 -109
643901912213222581 -104
643901912220908727 -106
643901912228594873 -109
643901912236281019 -109
643901912243967165 -102
643901912251653311 -97
643901912259339457 -97
643901912267025603 -94
643901912274711749 -89
643901912282397895 -89
643901912290084041 -87
643901912297770187 -85
643901912305456333 -80
643901912313142479 -77
643901912320828625 -72
643901912328514771 -72
643901912336200917 -75
643901912343887063 -72
643901912351573209 -80
643901912359259355 -89
643901912366945501 -94
643901912374631647 -99
643901912382317793 -99
643901912390003939 -77
643901912397690085 -46
643901912405376231 -34
643901912413062377 -19
643901912420748523 -4
643901912428434669 -7
643901912436120815 -21
643901912443806961 -31
643901912451503148 -36
643901912459189155 -36
643901912466875162 -34
643901912474561169 -41
643901912482247176 -80
643901912489933183 -138
643901912497619190 -48
643901912505305197 408
643901912512991204 1185
643901912520677211 1860
643901912528363218 1734
643901912536049225 689
643901912543735232 -160
643901912551421239 -194
643901912559107246 -106
643901912566793253 -235
643901912574479260 -264
643901912582165267 -211
643901912589851274 -228
643901912597537281 -235
643901912605223288 -204
643901912612909295 -196
643901912620595302 -194
643901912628281309 -174
643901912635967316 -162
643901912643653323 -150
643901912651339330 -128
643901912659025337 -114
643901912666711344 -102
643901912674397351 -75
643901912682083358 -46
643901912689769365 -21
643901912697455372 17
643901912705141379 60
643901912712827386 102
643901912720513393 128
643901912728199400 145
643901912735885407 157
643901912743571414 167
643901912751257421 145
643901912758943428 87
643901912766629435 14
643901912774315442 -58
643901912782001449 -116
643901912789687456 -160
643901912797373463 -187
643901912805059470 -201
643901912812745477 -206
643901912820431484 -208
643901912828117491 -216
643901912835803498 -216
643901912843489505 -204
643901912851175512 -191
643901912858861519 -187
643901912866547526 -182
643901912874233533 -172
643901912881919540 -165
643901912889605547 -160
643901912897291554 -148
643901912904977561 -138
643901912912663568 -136
643901912920349575 -131
643901912928035582 -123
643901912935721589 -119
643901912943407596 -119
643901912951093603 -121
643901912958779610 -121
643901912966465617 -111
643901912974151624 -102
643901912981837631 -102
643901912989523638 -102
643901912997209645 -99
643901913004895652 -102
643901913012591741 -99
643901913020277608 -92
643901913027963475 -89
643901913035649342 -87
643901913043335209 -89
643901913051021076 -87
643901913058706943 -85
643901913066392810 -82
643901913074078677 -82
643901913081764544 -85
643901913089450411 -82
643901913097136278 -82
643901913104822145 -80
643901913112508012 -80
643901913120193879 -87
643901913127879746 -106
643901913135565613 -114
643901913143251480 -106
643901913150937347 -104
643901913158623214 -87
643901913166309081 -63
643901913173994948 -55
643901913181680815 -51
643901913189366682 -31
643901913197052549 -31
643901913204738416 -53
643901913212424283 -65
643901913220110150 -58
643901913227796017 -55
643901913235481884 -60
643901913243167751 -60
643901913250853618 -87
643901913258539485 -140
643901913266225352 -65
643901913273911219 354
643901913281597086 1083
643901913289282953 1736
643901913296968820 1681
643901913304654687 738
643901913312340554 -126
643901913320026421 -213
643901913327712288 -109
643901913335398155 -223
643901913343084022 -267
643901913350769889 -208
643901913358455756 -218
643901913366141623 -235
643901913373827490 -211
643901913381513357 -196
643901913389199224 -194
643901913396885091 -177
643901913404570958 -165
643901913412256825 -150
643901913419942692 -128
643901913427628559 -109
643901913435314426 -92
643901913443000293 -70
643901913450686160 -43
643901913458372027 -14
643901913466057894 21
643901913473743761 60
643901913481429628 102
643901913489115495 138
643901913496801362 165
643901913504487229 174
643901913512173096 172
643901913519858963 155
643901913527544830 106
643901913535230697 31
643901913542916564 -43
643901913550602431 -106
643901913558288298 -150
643901913565974165 -182
643901913573690184 -199
643901913581375633 -204
643901913589061082 -206
643901913596746531 -204
643901913604431980 -196
643901913612117429 -189
643901913619802878 -184
643901913627488327 -179
643901913635173776 -174
643901913642859225 -165
643901913650544674 -155
643901913658230123 -150
643901913665915572 -145
643901913673601021 -140
643901913681286470 -140
643901913688971919 -138
643901913696657368 -131
643901913704342817 -126
643901913712028266 -123
643901913719713715 -119
643901913727399164 -111
643901913735084613 -106
643901913742770062 -106
643901913750455511 -106
643901913758140960 -104
643901913765826409 -97
643901913773511858 -97
643901913781197307 -99
643901913788882756 -94
643901913796568205 -87
643901913804253654 -87
643901913811939103 -85
643901913819624552 -85
643901913827310001 -87
643901913834995450 -85
643901913842680899 -77
643901913850366348 -75
643901913858051797 -75
643901913865737246 -72
643901913873422695 -72
643901913881108144 -75
643901913888793593 -75
643901913896479042 -70
643901913904164491 -68
643901913911849940 -63
643901913919535389 -63
643901913927220838 -80
643901913934906287 -97
643901913942591736 -97
643901913950277185 -89
643901913957962634 -87
643901913965648083 -75
643901913973333532 -46
643901913981018981 -29
643901913988704430 -19
643901913996389879 -4
643901914004075328 0
643901914011760777 -14
643901914019446226 -31
643901914027131675 -34
643901914034817124 -21
643901914042502573 -19
643901914050188022 -31
643901914057873471 -68
643901914065558920 -116
643901914073244369 -12
643901914080929818 429
643901914088615267 1112
643901914096300716 1668
643901914103986165 1530
643901914111671614 600
643901914119357063 -167
643901914127042512 -191
643901914134697913 -89
643901914142383780 -206
643901914150069647 -240
643901914157755514 -189
643901914165441381 -208
643901914173127248 -230
643901914180813115 -204
643901914188498982 -191
643901914196184849 -189
643901914203870716 -172
643901914211556583 -155
643901914219242450 -145
643901914226928317 -131
643901914234614184 -111
643901914242300051 -87
643901914249985918 -63
643901914257671785 -36
643901914265357652 -4
643901914273043519 36
643901914280729386 80
643901914288415253 126
643901914296101120 162
643901914303786987 184
643901914311472854 201
643901914319158721 211
643901914326844588 194
643901914334530455 140
643901914342216322 60
643901914349902189 -19
643901914357588056 -85
643901914365273923 -136
643901914372959790 -172
643901914380645657 -196
643901914388331524 -206
643901914396017391 -199
643901914403703258 -184
643901914411389125 -179
643901914419074992 -182
643901914426760859 -182
643901914434446726 -172
643901914442132593 -155
643901914449818460 -143
643901914457504327 -143
643901914465190194 -138
643901914472876061 -121
643901914480561928 -114
643901914488247795 -111
643901914495933662 -104
643901914503619529 -97
643901914511305396 -97
643901914518991263 -102
643901914526677130 -102
643901914534362997 -85
643901914542048864 -80
643901914549734731 -92
643901914557420598 -82
643901914565106465 -63
643901914572792332 -70
643901914580478199 -82
643901914588164066 -77
643901914595849933 -72
643901914603535800 -77
643901914611221667 -65
643901914618907534 -55
643901914626593401 -77
643901914634279268 -82
643901914641965135 -48
643901914649651002 -55
643901914657336869 -82
643901914665022736 -63
643901914672708603 -70
643901914680394470 -111
643901914688080337 -94
643901914695766256 -58
643901914703452123 -85
643901914711137990 -109
643901914718823857 -51
643901914726509724 -4
643901914734195591 -26
643901914741881458 -43
643901914749567325 -31
643901914757253192 -36
643901914764939059 -46
643901914772624926 -34
643901914780310793 -38
643901914787996660 -63
643901914795682527 -72
643901914803368394 -97
643901914811054261 -36
643901914818740128 361
643901914826425995 1020
643901914834111862 1506
643901914841797729 1343
643901914849483596 478
643901914857169463 -250
643901914864855330 -262
643901914872541197 -116
643901914880227064 -182
643901914887912931 -208
643901914895598798 -174
643901914903284665 -189
643901914910970532 -196
643901914918656399 -174
643901914926342266 -172
643901914934028133 -174
643901914941714000 -155
643901914949399867 -136
643901914957085734 -121
643901914964771601 -97
643901914972457468 -70
643901914980143335 -53
643901914987829202 -26
643901914995515069 7
643901915003200936 46
643901915010886803 99
643901915018572670 157
643901915026258537 201
643901915033944404 238
643901915041630271 272
643901915049316138 291
643901915057002005 293
643901915064687872 269
643901915072373739 206
643901915080059606 102
643901915087745473 -7
643901915095431340 -97
643901915103117207 -162
643901915110803074 -206
643901915118488941 -228
643901915126174808 -238
643901915133860675 -238
643901915141546542 -235
643901915149232409 -233
643901915156918276 -228
643901915164604143 -218
643901915172290010 -208
643901915179975877 -204
643901915187661744 -196
643901915195347611 -179
643901915203033478 -160
643901915210719345 -150
643901915218405212 -143
643901915226091079 -136
643901915233776946 -123
643901915241462813 -119
643901915249148680 -121
643901915256834599 -121
643901915264520466 -119
643901915272206333 -111
643901915279892200 -106
643901915287578067 -106
643901915295263934 -109
643901915302949801 -109
643901915310635668 -111
643901915318321535 -111
643901915326007402 -114
643901915333693269 -116
643901915341379136 -109
643901915349065003 -99
643901915356750870 -99
643901915364436737 -102
643901915372122604 -104
643901915379808471 -109
643901915387494338 -114
643901915395180205 -119
643901915402866072 -131
643901915410551939 -133
643901915418237806 -99
643901915425923673 -60
643901915433609540 -53
643901915441295407 -51
643901915448981274 -38
643901915456667141 -36
643901915464353008 -41
643901915472038875 -46
643901915479724742 -46
643901915487410609 -46
643901915495096476 -41
643901915502782343 -38
643901915510468210 -72
643901915518154077 -126
643901915525839944 -4
643901915533525811 478
643901915541211678 1168
643901915548897545 1654
643901915556583412 1399
643901915564269279 422
643901915571955146 -247
643901915579641013 -177
643901915587326880 -92
643901915595012747 -213
643901915602698614 -216
643901915610384481 -167
643901915618070348 -187
643901915625756215 -189
643901915633442082 -170
643901915641127949 -170
643901915648813816 -160
643901915656499683 -138
643901915664185550 -131
643901915671871417 -126
643901915679557284 -106
643901915687243151 -94
643901915694929018 -72
643901915702614885 -41
643901915710300752 -7
643901915717986619 26
643901915725672486 68
643901915733358353 111
643901915741044220 160
643901915748730087 196
643901915756415954 216
643901915764101821 223
643901915771787688 216
643901915779473555 177
643901915787159422 106
643901915794845289 21
643901915802531156 -58
643901915810217023 -126
643901915817902942 -174
643901915825588809 -201
643901915833274676 -213
643901915840960543 -221
643901915848646410 -221
643901915856332277 -221
643901915864018144 -221
643901915871704011 -211
643901915879389878 -204
643901915887075745 -201
643901915894761612 -191
643901915902447479 -182
643901915910133346 -174
643901915917819213 -162
643901915925505080 -150
643901915933190947 -148
643901915940876814 -143
643901915948562681 -138
643901915956248548 -133
643901915963934415 -128
643901915971620282 -116
643901915979306149 -114
643901915986992016 -116
643901915994677883 -116
643901916002363750 -114
643901916010049617 -111
643901916017735484 -109
643901916025421351 -114
643901916033107218 -116
643901916040793085 -121
643901916048478952 -126
643901916056164819 -128
643901916063850686 -126
643901916071536553 -138
643901916079222420 -145
643901916086908287 -114
643901916094594154 -75
643901916102280021 -63
643901916109965888 -53
643901916117651755 -41
643901916125337622 -43
643901916133023489 -48
643901916140709356 -48
643901916148395223 -48
643901916156081090 -53
643901916163766957 -58
643901916171452824 -58
643901916179138691 -99
643901916186824558 -162
643901916194510425 -31
643901916202196292 522
643901916209882159 1355
643901916217568026 1945
643901916225253893 1610
643901916232939760 461
643901916240625627 -255
643901916248311494 -172
643901916255997361 -123
643901916263683228 -269
643901916271369095 -259
643901916279054962 -211
643901916286740829 -238
643901916294426696 -228
643901916302112563 -191
643901916309798430 -191
643901916317484297 -187
643901916325170164 -162
643901916332856031 -150
643901916340541898 -138
643901916348227765 -119
643901916355913632 -94
643901916363599499 -72
643901916371285366 -48
643901916378971285 -24
643901916386657152 7
643901916394343019 48
643901916402028886 94
643901916409714753 131
643901916417400620 155
643901916425086487 172
643901916432772354 182
643901916440458221 179
643901916448144088 136
643901916455829955 55
643901916463515822 -24
643901916471201689 -94
643901916478887556 -145
643901916486573423 -174
643901916494259290 -208
643901916501945157 -245
643901916509631024 -242
643901916517316891 -223
643901916525002758 -218
643901916532688625 -208
643901916540374492 -194
643901916548060359 -189
643901916555746226 -184
643901916563432093 -174
643901916571117960 -167
643901916578803827 -155
643901916586489694 -138
643901916594175561 -136
643901916601861428 -136
643901916609547295 -116
643901916617233162 -97
643901916624919029 -104
643901916632604896 -111
643901916640290763 -106
643901916647976630 -102
643901916655662497 -99
643901916663348364 -89
643901916671034231 -89
643901916678720098 -106
643901916686405965 -126
643901916694091832 -128
643901916701777699 -121
643901916709463566 -126
643901916717149433 -126
643901916724835300 -102
643901916732521167 -70
643901916740207034 -48
643901916747892901 -31
643901916755578768 -31
643901916763264635 -43
643901916770950502 -55
643901916778636369 -60
643901916786322236 -48
643901916794008103 -34
643901916801693970 -36
643901916809379837 -53
643901916817065704 -106
643901916824751571 -160
643901916832437438 19
643901916840123305 636
643901916847809172 1481
643901916855495039 1962
643901916863180906 1464
643901916870866773 340
643901916878552640 -218
643901916886238507 -116
643901916893924374 -138
643901916901610241 -274
643901916909296108 -240
643901916916981975 -206
643901916924667842 -242
643901916932353709 -223
643901916940039628 -187
643901916947725495 -194
643901916955411362 -182
643901916963097229 -140
643901916970783096 -121
643901916978468963 -121
643901916986154830 -121
643901916993840697 -109
643901917001526564 -87
643901917009212431 -60
643901917016898298 -14
643901917024584165 26
643901917032270032 58
643901917039955899 99
643901917047641766 140
643901917055327633 160
643901917063013500 165
643901917070699367 177
643901917078385234 165
643901917086071101 102
643901917093756968 21
643901917101442835 -60
643901917109128702 -131
643901917116814569 -174
643901917124500436 -201
643901917132186303 -223
643901917139872170 -223
643901917147558037 -213
643901917155243904 -216
643901917162929771 -216
643901917170615638 -213
643901917178301505 -213
643901917185987372 -208
643901917193673239 -201
643901917201359106 -189
643901917209044973 -174
643901917216730840 -170
643901917224416707 -162
643901917232102574 -143
643901917239788441 -145
643901917247474308 -153
643901917255160175 -114
643901917262846042 -97
643901917270531909 -138
643901917278217776 -143
643901917285903643 -111
643901917293589510 -97
643901917301275377 -104
643901917308961244 -126
643901917316647111 -133
643901917324332978 -128
643901917332018845 -140
643901917339704712 -128
643901917347390579 -77
643901917355076446 -51
643901917362762313 -43
643901917370448180 -19
643901917378134047 -12
643901917385819914 -48
643901917393505781 -82
643901917401191648 -75
643901917408877515 -36
643901917416563382 -19
643901917424249249 -55
643901917431935116 -121
643901917439620983 -189
643901917447306850 -119
643901917454992717 354
643901917462678584 1168
643901917470364451 1807
643901917478050318 1603
643901917485736185 583
643901917493422052 -148
643901917501107975 -138
643901917508793842 -97
643901917516479709 -235
643901917524165576 -250
643901917531851443 -211
643901917539537310 -223
643901917547223177 -199
643901917554909044 -155
643901917562594911 -174
643901917570280778 -194
643901917577966645 -153
643901917585652512 -116
643901917593338379 -133
643901917601024246 -143
643901917608710113 -94
643901917616395980 -41
643901917624081847 -19
643901917631767714 -19
643901917639453581 -2
643901917647139448 53
643901917654825315 114
643901917662511182 160
643901917670197049 189
643901917677882916 167
643901917685568783 148
643901917693254650 165
643901917700940517 138
643901917708626384 29
643901917716312251 -87
643901917723998118 -126
643901917731683985 -138
643901917739369852 -177
643901917747055719 -191
643901917754741586 -187
643901917762427453 -201
643901917770113320 -206
643901917777799187 -170
643901917785485054 -153
643901917793170921 -199
643901917800856788 -223
643901917808542655 -187
643901917816228522 -145
643901917823914389 -145
643901917831600256 -157
643901917839286123 -143
643901917846971990 -114
643901917854657857 -104
643901917862343724 -121
643901917870029591 -121
643901917877715458 -104
643901917885401325 -92
643901917893087192 -82
643901917900773059 -72
643901917908458926 -85
643901917916144793 -102
643901917923830660 -89
643901917931516527 -99
643901917939202394 -121
643901917946888261 -102
643901917954574128 -82
643901917962259995 -111
643901917969945862 -121
643901917977631729 -82
643901917985317596 -58
643901917993003463 -72
643901918000689330 -63
643901918008375197 -31
643901918016061064 -31
643901918023746931 -65
643901918031432798 -82
643901918039118665 -68
643901918046804532 -43
643901918054490399 -34
643901918062176318 -46
643901918069862185 -85
643901918077548052 -150
643901918085233919 -148
643901918092919786 201
643901918100605653 1012
643901918108291520 1870
643901918115977387 1977
643901918123663254 1010
643901918131349121 -38
643901918139034988 -235
643901918146720855 -133
643901918154406722 -267
643901918162092589 -320
643901918169778456 -233
643901918177464323 -233
643901918185150190 -274
643901918192836057 -250
643901918200521924 -208
643901918208207791 -201
643901918215893658 -201
643901918223579525 -182
643901918231265392 -145
643901918238951259 -128
643901918246637126 -155
643901918254322993 -153
643901918262008860 -77
643901918269694727 -24
643901918277380594 -9
643901918285066461 7
643901918292752328 19
643901918300438195 46
643901918308124062 80
643901918315809929 94
643901918323495796 109
643901918331181663 109
643901918338867530 87
643901918346553397 53
643901918354239264 -31
643901918361925131 -121
643901918369610998 -148
643901918377296865 -165
643901918384982732 -208
643901918392668599 -216
643901918400354466 -199
643901918408040333 -211
643901918415726200 -223
643901918423412067 -199
643901918431097934 -184
643901918438783801 -189
643901918446469668 -182
643901918454155535 -165
643901918461841402 -167
643901918469527269 -172
643901918477213136 -153
643901918484899003 -138
643901918492584870 -138
643901918500270737 -148
643901918507956604 -140
643901918515642471 -119
643901918523328338 -114
643901918531014205 -111
643901918538700072 -82
643901918546385939 -80
643901918554071806 -111
643901918561757673 -114
643901918569443540 -80
643901918577129407 -85
643901918584815274 -123
643901918592501141 -94
643901918600187008 -51
643901918607872875 -85
643901918615558742 -119
643901918623244661 -99
643901918630930528 -87
643901918638616395 -92
643901918646302262 -111
643901918653988129 -111
643901918661673996 -80
643901918669359863 -48
643901918677045730 -26
643901918684731597 -24
643901918692417464 -48
643901918700103331 -58
643901918707789198 -51
643901918715475065 -68
643901918723160932 -85
643901918730846799 -70
643901918738532666 -58
643901918746218533 -82
643901918753904400 -145
643901918761590267 -206
643901918769276134 -14
643901918776962001 587
643901918784647868 1413
643901918792333735 1923
643901918800019602 1445
643901918807705469 315
643901918815391336 -242
643901918823077203 -143
643901918830763070 -177
643901918838448937 -325
643901918846134804 -286
643901918853820671 -245
643901918861506538 -262
643901918869192405 -223
643901918876878272 -194
643901918884564139 -218
643901918892250006 -211
643901918899935873 -177
643901918907621740 -170
643901918915307607 -155
643901918922993474 -121
643901918930679341 -109
643901918938365208 -87
643901918946051075 -41
643901918953736942 -19
643901918961422809 -4
643901918969108676 38
643901918976794543 87
643901918984480410 126
643901918992166277 150
643901918999852144 136
643901919007538011 116
643901919015223878 140
643901919022909745 128
643901919030595612 41
643901919038281479 -41
643901919045967346 -87
643901919053653213 -140
643901919061339080 -182
643901919069024947 -184
643901919076710814 -174
643901919084396681 -172
643901919092082548 -170
643901919099768415 -174
643901919107454282 -172
643901919115140149 -150
643901919122826016 -136
643901919130511883 -145
643901919138197750 -148
643901919145883617 -123
643901919153569484 -123
643901919161255351 -140
643901919168941218 -111
643901919176627085 -80
643901919184317972 -121
643901919192003770 -148
643901919199689568 -102
643901919207375366 -70
643901919215061164 -85
643901919222746962 -94
643901919230432760 -114
643901919238118558 -128
643901919245804356 -99
643901919253490154 -75
643901919261175952 -80
643901919268861750 -82
643901919276547548 -85
643901919284233346 -75
643901919291919144 -51
643901919299604942 -65
643901919307290740 -106
643901919314976538 -104
643901919322662336 -65
643901919330348134 -58
643901919338033932 -75
643901919345719730 -68
643901919353405528 -51
643901919361091326 -53
643901919368777124 -58
643901919376462922 -58
643901919384148720 -63
643901919391834518 -63
643901919399520316 -51
643901919407206114 -63
643901919414891912 -82
643901919422577710 -68
643901919430263508 -63
643901919437949306 -87
643901919445635104 -65
643901919453320902 0
643901919461006700 21
643901919468692498 -2
643901919476378296 -24
643901919484064094 -17
643901919491749892 -21
643901919499435690 -41
643901919507121488 -43
643901919514807286 -38
643901919522493084 -38
643901919530178882 -48
643901919537864680 -102
643901919545550478 -170
643901919553236276 -94
643901919560922074 325
643901919568607872 1073
643901919576293670 1739
643901919583979468 1637
643901919591665266 682
643901919599351064 -99
643901919607036862 -167
643901919614722660 -131
643901919622408458 -245
643901919630094256 -242
643901919637780054 -189
643901919645465852 -225
643901919653151650 -230
643901919660837448 -174
643901919668523246 -167
643901919676209044 -179
643901919683894842 -160
643901919691580640 -140
643901919699266438 -131
643901919706952236 -102
643901919714638034 -70
643901919722323832 -72
643901919730009630 -72
643901919737695428 -24
643901919745401320 31
643901919753086839 55
643901919760772358 75
643901919768457877 116
643901919776143396 150
643901919783828915 160
643901919791514434 165
643901919799199953 167
643901919806885472 157
643901919814570991 119
643901919822256510 51
643901919829942029 -29
643901919837627548 -92
643901919845313067 -119
643901919852998586 -138
643901919860684105 -172
643901919868369624 -189
643901919876055143 -189
643901919883740662 -177
643901919891426181 -148
643901919899111700 -140
643901919906797219 -140
643901919914482738 -111
643901919922168257 -128
643901919929853776 -165
643901919937539295 -114
643901919945224814 -65
643901919952910333 -126
643901919960595852 -157
643901919968281371 -94
643901919975966890 -51
643901919983652409 -51
643901919991337928 -46
643901919999023447 -68
643901920006708966 -97
643901920014394485 -63
643901920022080004 -9
643901920029765523 -9
643901920037451042 -36
643901920045136561 -46
643901920052822080 -58
643901920060507599 -70
643901920068193118 -53
643901920075878637 -19
643901920083564156 -9
643901920091249675 -58
643901920098935194 -94
643901920106620713 -55
643901920114306232 0
643901920121991751 19
643901920129677270 38
643901920137362789 58
643901920145048308 2
643901920152733827 -75
643901920160419346 -51
643901920168104865 -21
643901920175790384 -19
643901920183475903 9
643901920191161422 -9
643901920198846941 -7
643901920206532460 70
643901920214217979 70
643901920221903498 14
643901920229589017 -21
643901920237274536 -21
643901920244960055 4
643901920252645574 0
643901920260331093 29
643901920268016612 102
643901920275702131 53
643901920283387650 -41
643901920291073169 17
643901920298758688 87
643901920306419172 48
643901920314105039 51
643901920321790906 87
643901920329476773 51
643901920337162640 14
643901920344848507 46
643901920352534374 51
643901920360220241 -7
643901920367906108 -75
643901920375591975 -87
643901920383277842 140
643901920390963709 653
643901920398649576 1226
643901920406335443 1498
643901920414021310 1027
643901920421707177 172
643901920429393044 -155
643901920437078911 -58
643901920444764778 -114
643901920452450645 -196
643901920460136512 -133
643901920467822379 -131
643901920475508246 -174
643901920483194113 -150
643901920490879980 -150
643901920498565847 -170
643901920506251714 -148
643901920513937581 -111
643901920521623448 -82
643901920529309315 -65
643901920536995182 -80
643901920544681049 -70
643901920552366916 -24
643901920560052783 -12
643901920567738650 -7
643901920575424517 34
643901920583110384 70
643901920590796251 109
643901920598482118 143
643901920606167985 136
643901920613853852 136
643901920621539719 165
643901920629225586 136
643901920636911453 94
643901920644597320 70
643901920652283187 12
643901920659969054 -68
643901920667654921 -111
643901920675340788 -148
643901920683026655 -206
643901920690712522 -225
643901920698398389 -199
643901920706084256 -196
643901920713770123 -221
643901920721455990 -221
643901920729141857 -201
643901920736827724 -189
643901920744513591 -184
643901920752199458 -194
643901920759885325 -208
643901920767571192 -199
643901920775257059 -170
643901920782942926 -160
643901920790628793 -170
643901920798314660 -174
643901920806000527 -179
643901920813686394 -182
643901920821372261 -170
643901920829058128 -150
643901920836743995 -155
643901920844429862 -179
643901920852115729 -174
643901920859801596 -155
643901920867477439 -150
643901920875163446 -153
643901920882849453 -150
643901920890535460 -153
643901920898221467 -140
643901920905907474 -119
643901920913593481 -126
643901920921279488 -155
643901920928965495 -153
643901920936651502 -123
643901920944337509 -126
643901920952023516 -140
643901920959709523 -106
643901920967395530 -80
643901920975081537 -114
643901920982767544 -148
643901920990453551 -138
643901920998139558 -106
643901921005825565 -92
643901921013511572 -92
643901921021197579 -87
643901921028883586 -82
643901921036569593 -87
643901921044255600 -87
643901921051941607 -70
643901921059627614 -65
643901921067313621 -87
643901921074999628 -99
643901921082685635 -82
643901921090371642 -58
643901921098057649 -38
643901921105743656 -14
643901921113429663 0
643901921121115670 -31
643901921128801677 -65
643901921136487684 -70
643901921144173691 -55
643901921151859698 -34
643901921159545705 -43
643901921167231712 -114
643901921174917719 -119
643901921182603726 165
643901921190289733 689
643901921197975740 1158
643901921205661747 1200
643901921213347754 653
643901921221033761 0
643901921228719768 -196
643901921236405775 -133
643901921244091782 -165
643901921251777789 -216
643901921259463796 -179
643901921267149803 -153
643901921274835810 -157
643901921282521817 -140
643901921290207824 -131
643901921297893831 -143
643901921305579838 -116
643901921313265845 -85
643901921320951852 -99
643901921328637859 -89
643901921336323866 -51
643901921344009873 -38
643901921351695880 -41
643901921359381887 -41
643901921367067894 -12
643901921374753901 48
643901921382439908 99
643901921390125915 136
643901921397811922 162
643901921405497929 182
643901921413183936 208
643901921420869943 235
643901921428560996 213
643901921436246933 167
643901921443932870 131
643901921451618807 43
643901921459304744 -68
643901921466990681 -121
643901921474676618 -148
643901921482362555 -184
643901921490048492 -196
643901921497734429 -184
643901921505420366 -194
643901921513106303 -196
643901921520792240 -177
643901921528478177 -148
643901921536164114 -153
643901921543850051 -196
643901921551535988 -187
643901921559221925 -140
643901921566907862 -157
643901921574593799 -153
643901921582279736 -111
643901921589965673 -140
643901921597651610 -157
643901921605337547 -106
643901921613023484 -114
643901921620709421 -140
643901921628395358 -123
643901921636081295 -123
643901921643767232 -116
643901921651453169 -89
643901921659139106 -97
643901921666825043 -109
643901921674510980 -92
643901921682196917 -85
643901921689882854 -99
643901921697568791 -102
643901921705254728 -111
643901921712940665 -92
643901921720626602 -53
643901921728312539 -82
643901921735998476 -94
643901921743684413 -21
643901921751370350 -21
643901921759056287 -126
643901921766742224 -157
643901921774428161 -82
643901921782114098 -36
643901921789800035 -43
643901921797485972 -48
643901921805171909 -41
643901921812857846 -51
643901921820543783 -77
643901921828229720 -80
643901921835915657 -63
643901921843601594 -19
643901921851287531 36
643901921858973468 24
643901921866659405 -46
643901921874345342 -70
643901921882031279 -26
643901921889717216 -14
643901921897403153 -36
643901921905089090 -4
643901921912775027 4
643901921920460964 -46
643901921928146901 -92
643901921935832838 -80
643901921943518775 106
643901921951204712 531
643901921958890649 1093
643901921966576586 1401
643901921974262523 952
643901921981948460 131
643901921989624418 -189
643901921997310494 -99
643901922004996570 -119
643901922012682646 -177
643901922020368722 -150
643901922028054798 -182
643901922035740874 -228
643901922043426950 -182
643901922051113026 -145
643901922058799102 -182
643901922066485178 -182
643901922074171254 -123
643901922081857330 -104
643901922089543406 -109
643901922097229482 -89
643901922104915558 -72
643901922112601634 -60
643901922120287710 -24
643901922127973786 7
643901922135659862 29
643901922143345938 63
643901922151032014 111
643901922158718090 150
643901922166404166 165
643901922174090242 177
643901922181776318 191
643901922189462394 177
643901922197148470 138
643901922204834546 85
643901922212520622 19
643901922220206698 -58
643901922227892774 -136
643901922235578850 -184
643901922243264926 -194
643901922250951002 -204
643901922258637078 -204
643901922266323154 -194
643901922274009230 -216
643901922281695306 -233
643901922289381382 -196
643901922297067458 -177
643901922304753534 -191
643901922312439610 -187
643901922320125686 -165
643901922327811762 -172
643901922335497838 -187
643901922343183914 -172
643901922350869990 -138
643901922358556066 -94
643901922366242142 -82
643901922373928218 -165
643901922381614294 -233
643901922389300370 -167
643901922396986446 -109
643901922404672522 -136
643901922412358598 -136
643901922420044674 -109
643901922427730750 -116
643901922435416826 -116
643901922443102902 -87
643901922450788978 -87
643901922458475054 -104
643901922466161130 -104
643901922473847206 -104
643901922481533282 -102
643901922489219358 -89
643901922496905434 -85
643901922504591510 -97
643901922512277586 -99
643901922519963662 -82
643901922527649738 -68
643901922535335814 -75
643901922543021890 -102
643901922550723066 -104
643901922558408933 -92
643901922566094800 -87
643901922573780667 -82
643901922581466534 -70
643901922589152401 -51
643901922596838268 -34
643901922604524135 -29
643901922612210002 -34
643901922619895869 -34
643901922627581736 -41
643901922635267603 -72
643901922642953470 -85
643901922650639337 -70
643901922658325204 -85
643901922666011071 -140
643901922673696938 -179
643901922681382805 -31
643901922689068672 400
643901922696754539 988
643901922704440406 1404
643901922712126273 1149
643901922719812140 301
643901922727498007 -216
643901922735183874 -165
643901922742869741 -148
643901922750555608 -252
643901922758241475 -257
643901922765927342 -228
643901922773613209 -228
643901922781299076 -211
643901922788984943 -201
643901922796670810 -201
643901922804356677 -177
643901922812042544 -148
643901922819728411 -133
643901922827414278 -126
643901922835100145 -109
643901922842786012 -75
643901922850471879 -46
643901922858157746 -24
643901922865843613 2
643901922873529480 38
643901922881215347 75
643901922888901214 114
643901922896587081 153
643901922904272948 184
643901922911958815 206
643901922919644682 213
643901922927330549 211
643901922935016416 189
643901922942702283 138
643901922950388150 68
643901922958074017 -4
643901922965759884 -72
643901922973445751 -126
643901922981131618 -165
643901922988817485 -177
643901922996503352 -179
643901923004189219 -182
643901923011875086 -174
643901923019560953 -167
643901923027246820 -167
643901923034932687 -160
643901923042618554 -150
643901923050304421 -153
643901923057990288 -157
643901923065676155 -148
643901923073362022 -138
643901923081047889 -133
643901923088733756 -126
643901923096419623 -116
643901923104105490 -114
643901923111791409 -114
643901923119477276 -104
643901923127163143 -97
643901923134849010 -89
643901923142534877 -80
643901923150220744 -75
643901923157906611 -77
643901923165592478 -85
643901923173278345 -89
643901923180964212 -87
643901923188650079 -85
643901923196335946 -80
643901923204021813 -72
643901923211707680 -60
643901923219393547 -51
643901923227079414 -46
643901923234765281 -55
643901923242451148 -75
643901923250137015 -75
643901923257822882 -55
643901923265508749 -58
643901923273194616 -82
643901923280880483 -68
643901923288566350 -60
643901923296252217 -85
643901923303938084 -55
643901923311623951 -19
643901923319309818 -34
643901923326995685 -19
643901923334681552 12
643901923342367419 -12
643901923350053286 -58
643901923357739153 -65
643901923365425020 -41
643901923373110887 -41
643901923380796754 -68
643901923388482621 -87
643901923396168488 -92
643901923403854355 48
643901923411540222 514
643901923419226089 1110
643901923426911956 1408
643901923434597823 1066
643901923442283690 250
643901923449969557 -250
643901923457655424 -194
643901923465341291 -119
643901923473027158 -191
643901923480713025 -204
643901923488398892 -162
643901923496084759 -165
643901923503770626 -172
643901923511456493 -140
643901923519142360 -121
643901923526828227 -131
643901923534514094 -123
643901923542199961 -102
643901923549885828 -87
643901923557571695 -63
643901923565257562 -38
643901923572943429 -26
643901923580629296 -9
643901923588315163 29
643901923596001030 77
643901923603686897 123
643901923611372764 162
643901923619058631 213
643901923626744498 284
643901923634430365 337
643901923642116232 327
643901923649802099 281
643901923657487966 252
643901923665173833 213
643901923672859752 126
643901923680545619 38
643901923688231486 -29
643901923695917353 -114
643901923703603220 -187
643901923711289087 -199
643901923718974954 -189
643901923726660821 -189
643901923734346688 -187
643901923742032555 -182
643901923749718422 -191
643901923757404289 -191
643901923765090156 -177
643901923772776023 -170
643901923780461890 -170
643901923788147757 -153
643901923795833624 -128
643901923803519491 -128
643901923811205358 -136
643901923818891225 -106
643901923826577092 -75
643901923834262959 -94
643901923841948826 -111
643901923849634693 -82
643901923857320560 -72
643901923865006427 -85
643901923872692294 -77
643901923880378161 -87
643901923888064028 -109
643901923895749895 -82
643901923903435762 -48
643901923911121629 -58
643901923918807496 -72
643901923926493363 -55
643901923934179230 -38
643901923941865097 -55
643901923949550964 -75
643901923957236831 -65
643901923964922698 -46
643901923972608565 -48
643901923980294432 -58
643901923987980299 -36
643901923995666166 -21
643901924003352033 -17
643901924011037900 17
643901924018723767 38
643901924026409634 12
643901924034095501 -2
643901924041781368 -9
643901924049467235 -34
643901924057153102 -48
643901924064838969 -29
643901924072524836 0
643901924080210703 -29
643901924087896570 -75
643901924095582437 109
643901924103268304 614
643901924110954171 1204
643901924118640038 1506
643901924126325905 1093
643901924134011772 174
643901924141697639 -291
643901924149383506 -140
643901924157069373 -63
643901924164755240 -177
643901924172441107 -167
643901924180126974 -114
643901924187812841 -170
643901924195498708 -172
643901924203184575 -87
643901924210870442 -68
643901924218556309 -82
643901924226242176 -68
643901924233928099 -65
643901924241613966 -65
643901924249299833 -29
643901924256985700 21
643901924264671567 24
643901924272357434 14
643901924280043301 58
643901924287729168 114
643901924295415035 133
643901924303100902 153
643901924310786769 208
643901924318472636 255
643901924326158503 279
643901924333844370 301
643901924341530237 298
643901924349216104 223
643901924356901971 143
643901924364587838 72
643901924372273705 -29
643901924379959572 -119
643901924387645439 -165
643901924395331306 -167
643901924403017173 -174
643901924410703040 -230
643901924418388907 -235
643901924426074774 -153
643901924433760641 -133
643901924441446508 -184
643901924449132375 -177
643901924456818242 -148
643901924464504109 -162
643901924472189976 -160
643901924479875843 -128
643901924487561710 -123
643901924495247577 -136
643901924502933444 -133
643901924510619311 -111
643901924518305178 -94
643901924525991045 -104
643901924533676912 -111
643901924541362779 -102
643901924549048646 -80
643901924556734513 -65
643901924564420380 -72
643901924572106247 -72
643901924579792114 -63
643901924587477981 -75
643901924595163848 -97
643901924602849715 -97
643901924610535582 -75
643901924618221449 -68
643901924625907316 -46
643901924633593183 -29
643901924641279050 -99
643901924648964917 -167
643901924656650784 -116
643901924664336651 -12
643901924672022518 0
643901924679708385 -58
643901924687394252 -24
643901924695080119 70
643901924702765986 51
643901924710451853 -19
643901924718137720 -51
643901924725823587 -77
643901924733509454 -53
643901924741195321 21
643901924748881188 24
643901924756567055 -68
643901924764252922 -87
643901924771938789 179
643901924779624656 760
643901924787310523 1408
643901924795026538 1610
643901924802711987 957
643901924810397436 29
643901924818082885 -250
643901924825768334 -92
643901924833453783 -145
643901924841139232 -264
643901924848824681 -179
643901924856510130 -119
643901924864195579 -179
643901924871881028 -194
643901924879566477 -167
643901924887251926 -148
643901924894937375 -99
643901924902622824 -87
643901924910308273 -106
643901924917993722 -72
643901924925679171 -29
643901924933364620 -38
643901924941050069 -53
643901924948735518 -12
643901924956420967 58
643901924964106416 102
643901924971791865 126
643901924979477314 160
643901924987162763 199
643901924994848212 213
643901925002533661 206
643901925010219110 228
643901925017904559 252
643901925025590008 213
643901925033275457 99
643901925040960906 -21
643901925048646355 -72
643901925056331804 -102
643901925064017253 -140
643901925071702702 -167
643901925079388151 -196
643901925087073600 -184
643901925094759049 -153
643901925102444498 -170
643901925110129947 -213
643901925117815396 -225
643901925125500845 -196
643901925133186294 -165
643901925140871743 -150
643901925148557192 -138
643901925156242641 -153
643901925163928090 -153
643901925171613539 -138
643901925179298988 -177
643901925186984437 -157
643901925194669886 -60
643901925202355335 -82
643901925210040784 -179
643901925217726233 -157
643901925225411682 -63
643901925233097131 -80
643901925240782580 -150
643901925248468029 -126
643901925256153478 -94
643901925263838927 -99
643901925271524376 -60
643901925279209825 -48
643901925286895274 -58
643901925294580723 -75
643901925302266172 -138
643901925309951621 -126
643901925317637070 -46
643901925325322519 -63
643901925333007968 -114
643901925340693417 -80
643901925348378866 -80
643901925356034267 -114
643901925363720134 -46
643901925371406001 7
643901925379091868 -19
643901925386777735 -38
643901925394463602 -53
643901925402149469 -19
643901925409835336 4
643901925417521203 -60
643901925425207070 -94
643901925432892937 -48
643901925440578804 -60
643901925448264671 -106
643901925455950538 77
643901925463636405 646
643901925471322272 1340
643901925479008139 1598
643901925486694006 1003
643901925494379873 58
643901925502065740 -284
643901925509751607 -126
643901925517437474 -114
643901925525123341 -177
643901925532809208 -170
643901925540495075 -218
643901925548180942 -218
643901925555866809 -179
643901925563552676 -216
643901925571238543 -179
643901925578924410 -72
643901925586610277 -114
643901925594296144 -172
643901925601982011 -70
643901925609667878 -48
643901925617353745 -102
643901925625039612 -14
643901925632725479 -2
643901925640411346 -19
643901925648097213 136
643901925655783080 143
643901925663468947 41
643901925671154814 143
643901925678840681 228
643901925686526548 194
643901925694212415 255
643901925701898282 267
643901925709584149 97
643901925717270016 68
643901925724955883 119
643901925732641750 -34
643901925740327617 -187
643901925748013484 -206
643901925755699351 -184
643901925763385218 -177
643901925771071085 -194
643901925778756952 -121
643901925786442819 -70
643901925794128686 -221
643901925801814553 -320
643901925809500420 -204
643901925817186287 -119
643901925824872154 -206
643901925832558021 -284
643901925840243888 -184
643901925847929755 -65
643901925855615622 -121
643901925863301489 -160
643901925870987356 -48
643901925878673223 -102
643901925886359090 -250
643901925894044957 -119
643901925901730824 19
643901925909416691 -143
643901925917102610 -272
643901925924788477 -128
643901925932474344 -2
643901925940160211 -58
643901925947846078 -133
643901925955531945 -143
643901925963217812 -89
643901925970903679 -58
643901925978589546 -162
643901925986275413 -187
643901925993961280 -31
643901926001647147 -46
643901926009333014 -177
643901926017018881 -138
643901926024704748 -92
643901926032390615 -89
643901926040076482 -24
643901926047762349 -133
643901926055448216 -264
643901926063134083 -53
643901926070819950 85
643901926078505817 -97
643901926086191684 -184
643901926093877551 -38
643901926101563418 63
643901926109249285 -31
643901926116935152 -104
643901926124621019 7
643901926132306886 41
643901926139992753 -97
643901926147678620 -126
643901926155364487 -31
643901926163050354 -19
643901926170736221 -94
643901926178422088 -36
643901926186107955 429
643901926193793822 1200
643901926201479689 1661
643901926209165556 1234
643901926216851423 281
643901926224537290 -225
643901926232223157 -138
643901926239909024 -123
643901926247594891 -308
643901926255280758 -255
643901926262966625 -82
643901926270652492 -138
643901926278338359 -213
643901926286024226 -150
643901926293710093 -116
643901926301395960 -179
643901926309081827 -182
643901926316767694 -63
643901926324453561 -114
643901926332139428 -221
643901926339825295 -4
643901926347511162 162
643901926355197029 7
643901926362882896 -89
643901926370568763 -9
643901926378254630 102
643901926385940497 172
643901926393626364 174
643901926401312231 167
643901926408998098 160
643901926416683965 182
643901926424369832 238
643901926432055699 250
643901926439741566 140
643901926447427433 -4
643901926455113300 29
643901926462799167 65
643901926470485034 -218
643901926478170953 -371
643901926485856820 -46
643901926493542687 19
643901926501228554 -298
643901926508914421 -267
643901926516600288 -99
643901926524286155 -204
643901926531972022 -250
643901926539657889 -128
643901926547343756 -126
643901926555029623 -179
643901926562715490 -128
643901926570401357 -162
643901926578087224 -272
643901926585773091 -157
643901926593458958 -34
643901926601144825 -157
643901926608830692 -242
643901926616516559 -89
643901926624202426 0
643901926631888293 -201
643901926639574160 -255
643901926647260027 -17
643901926654945894 -65
643901926662631761 -308
643901926670317628 -155
643901926678003495 92
643901926685689362 -46
643901926693375229 -230
643901926701061096 -150
643901926708746963 -31
643901926716432830 -109
643901926724118697 -204
643901926731804564 -72
643901926739490431 -38
643901926747176298 -187
643901926754862165 -87
643901926762548032 29
643901926770233899 -116
643901926777919766 -172
643901926785605633 -63
643901926793291500 -21
643901926800977367 -75
643901926808663234 -128
643901926816349101 -102
643901926824034968 -17
643901926831720835 -53
643901926839406702 -119
643901926847092569 -60
643901926854778436 -41
643901926862464303 -46
643901926870150170 4
643901926877836037 9
643901926885521904 -24
643901926893207771 -17
643901926900893638 17
643901926908579505 19
643901926916265372 -24
643901926923951239 -41
643901926931637106 -14
643901926939322973 -36
643901926947008840 -87
643901926954694707 85
643901926962380574 604
643901926970066441 1173
643901926977752308 1425
643901926985438175 1071
643901926993124042 221
643901927000809909 -240
643901927008495776 -114
643901927016181643 -145
643901927023867510 -225
643901927031553377 -87
643901927039239296 -97
643901927046925163 -223
643901927054611030 -201
643901927062296897 -111
643901927069982764 -87
643901927077668631 -82
643901927085354498 -116
643901927093040365 -182
643901927100726232 -114
643901927108412099 9
643901927116097966 48
643901927123783833 -12
643901927131469700 -77
643901927139155567 36
643901927146841434 179
643901927154527301 114
643901927162213168 102
643901927169899035 293
643901927177584902 293
643901927185270769 126
643901927192956636 182
643901927200642503 291
643901927208328370 269
643901927216014237 218
643901927223700104 97
643901927231385971 -24
643901927239071838 -36
643901927246757705 -48
643901927254443572 -109
643901927262129439 -99
643901927269815306 -85
643901927277501173 -182
643901927285187040 -153
643901927292872907 0
643901927300558774 -114
643901927308244641 -293
643901927315930508 -143
643901927323616375 26
643901927331302242 -99
643901927338988109 -179
643901927346673976 -36
643901927354359843 14
643901927362045710 -77
643901927369731577 -111
643901927377417444 -68
643901927385103311 -17
643901927392789178 -26
643901927400475045 -82
643901927408160912 -77
643901927415846779 -29
643901927423532646 -26
643901927431218513 -53
643901927438904380 -65
643901927446590247 -48
643901927454276114 -21
643901927461961981 -38
643901927469647848 -46
643901927477333715 -21
643901927485019582 -31
643901927492705449 -63
643901927500391316 -53
643901927508077183 7
643901927515763050 21
643901927523448917 -19
643901927531134784 -51
643901927538820651 -29
643901927546506518 26
643901927554192385 36
643901927561878252 -12
643901927569564119 -60
643901927577249986 -26
643901927584935853 92
643901927592621720 72
643901927600327659 -80
643901927608013248 -63
643901927615698837 29
643901927623384426 -26
643901927631070015 -21
643901927638755604 99
643901927646441193 104
643901927654126782 53
643901927661812371 43
643901927669497960 4
643901927677183549 12
643901927684869138 82
643901927692554727 75
643901927700240316 9
643901927707925905 12
643901927715611494 4
643901927723297083 -41
643901927730982672 133
643901927738668261 694
643901927746353850 1350
643901927754039439 1571
643901927761725028 1037
643901927769410617 179
643901927777096206 -182
643901927784781795 -75
643901927792467384 -63
643901927800152973 -148
643901927807838562 -140
643901927815524151 -133
643901927823209740 -150
643901927830895329 -123
643901927838580918 -89
643901927846266507 -114
643901927853952096 -138
643901927861637685 -75
643901927869323274 9
643901927877008863 12
643901927884694452 -36
643901927892380041 -89
643901927900065630 -51
643901927907751219 104
643901927915436808 126
643901927923122397 65
643901927930807986 128
643901927938493575 189
643901927946179164 201
643901927953864753 242
643901927961550342 228
643901927969235931 174
643901927976921520 199
643901927984607109 218
643901927992292698 119
643901927999978287 9
643901928007663876 -46
643901928015349465 -106
643901928023035054 -160
643901928030720643 -199
643901928038406232 -228
643901928046091821 -240
643901928053777410 -233
643901928061462999 -233
643901928069148588 -230
643901928076834177 -223
643901928084519766 -264
643901928092205355 -296
643901928099890944 -252
643901928107576533 -194
643901928115262122 -196
643901928122947711 -240
643901928130633300 -252
643901928138318889 -213
643901928146004478 -179
643901928153690067 -189
643901928161365650 -199
643901928169051378 -199
643901928176737106 -196
643901928184422834 -184
643901928192108562 -204
643901928199794290 -216
643901928207480018 -157
643901928215165746 -133
643901928222851474 -194
643901928230537202 -218
643901928238222930 -165
643901928245908658 -138
643901928253594386 -174
643901928261280114 -174
643901928268965842 -140
643901928276651570 -153
643901928284337298 -184
643901928292023026 -174
643901928299708754 -131
643901928307394482 -114
643901928315080210 -155
643901928322765938 -162
643901928330451666 -116
643901928338137394 -140
643901928345823122 -196
643901928353508850 -182
643901928361194578 -140
643901928368880306 -138
643901928376566034 -145
643901928384251762 -119
643901928391937490 -63
643901928399623218 -31
643901928407308946 -60
643901928414994674 -75
643901928422680402 -65
643901928430366130 -97
643901928438051858 -97
643901928445737586 -46
643901928453423314 -46
643901928461109042 -116
643901928468794770 -167
643901928476480498 -12
643901928484166226 478
643901928491851954 1212
643901928499537682 1800
643901928507223410 1566
643901928514909138 512
643901928522594866 -247
643901928530280594 -223
643901928537966322 -109
643901928545652050 -218
643901928553337778 -267
643901928561023506 -225
643901928568709234 -225
643901928576394962 -213
643901928584080690 -177
643901928591766418 -196
643901928599452146 -218
643901928607137874 -172
643901928614823602 -133
643901928622509330 -136
643901928630195058 -131
643901928637880786 -111
643901928645566514 -94
643901928653252242 -51
643901928660937970 -2
643901928668623698 9
643901928676309426 2
643901928683995154 29
643901928691680882 82
643901928699366610 109
643901928707052338 119
643901928714738066 121
643901928722413811 92
643901928730099678 60
643901928737785545 43
643901928745471412 7
643901928753157279 -70
643901928760843146 -138
643901928768529013 -172
643901928776214880 -208
643901928783900747 -223
643901928791586614 -211
643901928799272481 -216
643901928806958348 -230
643901928814644215 -225
643901928822330082 -208
643901928830015949 -199
643901928837701816 -191
643901928845387683 -167
643901928853073550 -162
643901928860759417 -177
643901928868445284 -153
643901928876131151 -111
643901928883817018 -119
643901928891502885 -136
643901928899188752 -116
643901928906874619 -104
643901928914560486 -114
643901928922246353 -99
643901928929932220 -77
643901928937618087 -82
643901928945303954 -89
643901928952989821 -94
643901928960675688 -89
643901928968361555 -70
643901928976047422 -58
643901928983733289 -58
643901928991419156 -38
643901928999105023 -12
643901929006790890 -7
643901929014476757 -9
643901929022162624 2
643901929029848491 7
643901929037534358 0
643901929045220225 -7
643901929052906092 -26
643901929060591959 -51
643901929068277826 -63
643901929075963693 -72
643901929083649560 -82
643901929091335427 -77
643901929099021294 -65
643901929106707161 -41
643901929114393028 -7
643901929122078895 -7
643901929129764762 -31
643901929137450629 -43
643901929145136496 -51
643901929152822363 -51
643901929160508230 -53
643901929168194097 -68
643901929175879964 -75
643901929183565831 -109
643901929191251698 -119
643901929198937565 162
643901929206623432 777
643901929214309299 1404
643901929221995166 1576
643901929229681033 949
643901929237366900 34
643901929245052767 -281
643901929252738634 -145
643901929260424501 -155
643901929268110368 -238
643901929275796235 -213
643901929283512250 -206
643901929291197699 -228
643901929298883148 -213
643901929306568597 -204
643901929314254046 -196
643901929321939495 -174
643901929329624944 -162
643901929337310393 -162
643901929344995842 -153
643901929352681291 -128
643901929360366740 -97
643901929368052189 -75
643901929375737638 -53
643901929383423087 -29
643901929391108536 0
643901929398793985 60
643901929406479434 114
643901929414164883 123
643901929421850332 133
643901929429535781 145
643901929437221230 138
643901929444906679 121
643901929452592128 99
643901929460277577 38
643901929467963026 -55
643901929475648475 -114
643901929483333924 -140
643901929491019373 -184
643901929498704822 -221
643901929506390271 -225
643901929514075720 -235
643901929521761169 -225
643901929529446618 -201
643901929537132067 -208
643901929544817516 -216
643901929552502965 -184
643901929560188414 -157
643901929567873863 -167
643901929575559312 -174
643901929583244761 -162
643901929590930210 -153
643901929598615659 -138
643901929606301108 -121
643901929613986557 -123
643901929621672006 -126
643901929629357455 -116
643901929637042904 -116
643901929644728353 -116
643901929652413802 -114
643901929660099251 -116
643901929667784700 -109
643901929675470149 -99
643901929683155598 -104
643901929690841047 -109
643901929698526496 -102
643901929706211945 -89
643901929713897394 -87
643901929721582843 -99
643901929729268292 -89
643901929736953741 -70
643901929744639190 -75
643901929752324639 -85
643901929760010088 -85
643901929767695537 -89
643901929775380986 -102
643901929783066435 -104
643901929790751884 -92
643901929798437333 -75
643901929806122782 -55
643901929813808231 -36
643901929821493680 -24
643901929829179129 -24
643901929836864578 -34
643901929844489883 -43
643901929852176168 -51
643901929859862453 -48
643901929867548738 -51
643901929875235023 -53
643901929882921308 -60
643901929890607593 -106
643901929898293878 -85
643901929905980163 228
643901929913666448 796
643901929921352733 1302
643901929929039018 1328
643901929936725303 680
643901929944411588 -60
643901929952097873 -235
643901929959784158 -123
643901929967470443 -153
643901929975156728 -201
643901929982843013 -182
643901929990529298 -182
643901929998215583 -184
643901930005901868 -160
643901930013588153 -145
643901930021274438 -143
643901930028960723 -128
643901930036647008 -104
643901930044333293 -92
643901930052019578 -82
643901930059705863 -58
643901930067392148 -34
643901930075078433 -12
643901930082764718 7
643901930090451003 29
643901930098137288 70
643901930105823573 116
643901930113509858 143
643901930121196143 155
