timestamp ecg
643900162680180145 5927
643900162687865594 5919
643900162695551043 5919
643900162703236492 5919
643900162710921941 5905
643900162718607390 5902
643900162726292839 5905
643900162733978288 5885
643900162741663737 5868
643900162749349186 5861
643900162757034635 5842
643900162764720084 5822
643900162772405533 5810
643900162780090982 5788
643900162787776431 5764
643900162795461880 5742
643900162803147329 5713
643900162810832778 5686
643900162818518227 5669
643900162826203676 5650
643900162833889125 5626
643900162841574574 5582
643900162849260023 5519
643900162856945472 5497
643900162864630921 5487
643900162872316370 5446
643900162880001819 5421
643900162887687268 5404
643900162895372717 5361
643900162903058166 5305
643900162910743615 5261
643900162918429064 5227
643900162926114513 5196
643900162933799962 5145
643900162941485411 5067
643900162949170860 4979
643900162956856309 5021
643900162964541758 5346
643900162972227207 5859
643900162979912656 6235
643900162987598105 6085
643900162995283554 5315
643900163002969003 4613
643900163010654452 4501
643900163018339901 4579
643900163026025350 4498
643900163033710799 4428
643900163041396248 4426
643900163049081697 4391
643900163056767146 4350
643900163064452595 4331
643900163072138044 4294
643900163079823493 4248
643900163087508942 4219
643900163095194391 4200
643900163102879840 4180
643900163110565289 4151
643900163118250738 4117
643900163125936187 4083
643900163133621636 4056
643900163141307085 4047
643900163148992534 4047
643900163156677983 4042
643900163164363432 4030
643900163172048881 4013
643900163179734330 3979
643900163187419779 3928
643900163195105228 3867
643900163202790677 3794
643900163210476126 3694
643900163218161575 3583
643900163225847024 3490
643900163233532473 3410
643900163241187874 3342
643900163248873741 3289
643900163256559608 3240
643900163264245475 3194
643900163271931342 3162
643900163279617209 3126
643900163287303076 3085
643900163294988943 3055
643900163302674810 3026
643900163310360677 2990
643900163318046544 2966
643900163325732411 2944
643900163333418278 2902
643900163341104145 2866
643900163348790012 2832
643900163356475879 2791
643900163364161746 2754
643900163371847613 2727
643900163379533480 2701
643900163387219347 2667
643900163394905214 2633
643900163402591081 2596
643900163410276948 2565
643900163417962815 2538
643900163425648682 2509
643900163433334549 2475
643900163441020416 2441
643900163448706283 2409
643900163456392150 2380
643900163464078017 2351
643900163471763884 2327
643900163479449751 2295
643900163487135618 2261
643900163494821485 2232
643900163502507352 2210
643900163510193219 2183
643900163517879086 2157
643900163525564953 2132
643900163533250820 2098
643900163540936687 2069
643900163548622554 2045
643900163556308421 2018
643900163563994288 1991
643900163571680155 1972
643900163579366022 1943
643900163587051889 1911
643900163594737756 1889
643900163602423623 1860
643900163610109490 1819
643900163617795357 1797
643900163625481224 1783
643900163633167091 1756
643900163640852958 1749
643900163648538825 1756
643900163656224692 1744
643900163663910559 1707
643900163671596426 1664
643900163679282293 1629
643900163686968160 1610
643900163694654027 1588
643900163702339894 1559
643900163710025761 1493
643900163717711628 1433
643900163725397495 1561
643900163733083362 1989
643900163740769229 2579
643900163748455096 3002
643900163756140963 2706
643900163763826830 1746
643900163771512697 1122
643900163779198564 1166
643900163786884431 1212
643900163794570298 1102
643900163802256217 1100
643900163809942084 1129
643900163817627951 1095
643900163825313818 1083
643900163832999685 1088
643900163840685552 1073
643900163848371419 1061
643900163856057286 1054
643900163863743153 1044
643900163871429020 1046
643900163879114887 1044
643900163886800754 1042
643900163894486621 1051
643900163902172488 1066
643900163909858355 1078
643900163917544222 1100
643900163925230089 1122
643900163932915956 1136
643900163940601823 1141
643900163948287690 1136
643900163955973557 1117
643900163963659424 1083
643900163971345291 1034
643900163979031158 966
643900163986717025 896
643900163994402892 835
643900164002088759 789
643900164009774626 755
643900164017460493 733
643900164025146360 716
643900164032832227 702
643900164040518094 689
643900164048203961 682
643900164055889828 677
643900164063575695 675
643900164071261562 670
643900164078947429 665
643900164086633296 658
643900164094319163 648
643900164102005030 638
643900164109690897 636
643900164117376764 634
643900164125062631 626
643900164132748498 619
643900164140434365 614
643900164148120232 609
643900164155806099 604
643900164163491966 597
643900164171177833 590
643900164178863700 580
643900164186549567 573
643900164194235434 563
643900164201921301 556
643900164209607168 548
643900164217293035 541
643900164224978902 534
643900164232664769 522
643900164240350636 517
643900164248036503 512
643900164255722370 505
643900164263408237 497
643900164271094104 488
643900164278779971 480
643900164286465838 476
643900164294151705 471
643900164301837572 468
643900164309523439 461
643900164317209306 454
643900164324895173 444
643900164332581040 439
643900164340266907 434
643900164347952774 420
643900164355638641 395
643900164363324560 386
643900164371010427 386
643900164378696294 386
643900164386382161 383
643900164394068028 398
643900164401753895 417
643900164409439762 415
643900164417125629 391
643900164424811496 366
643900164432497363 352
643900164440183230 347
643900164447869097 344
643900164455554964 323
643900164463240831 267
643900164470926698 255
643900164478612565 473
643900164486298432 961
643900164493984299 1547
643900164501670166 1824
643900164509356033 1316
643900164517041900 400
643900164524727767 29
643900164532413634 143
643900164540099501 136
643900164547785368 60
643900164555471235 99
643900164563157102 119
643900164570842969 94
643900164578528836 104
643900164586214703 119
643900164593900570 116
643900164601586437 123
643900164609272304 143
643900164616958171 155
643900164624644038 162
643900164632329905 177
643900164640015772 194
643900164647701639 213
643900164655387506 240
643900164663073373 274
643900164670759240 308
643900164678445107 340
643900164686130974 359
643900164693816841 369
643900164701502708 369
643900164709188575 361
643900164716874442 337
643900164724560309 289
643900164732246176 228
643900164739932043 172
643900164747617910 128
643900164755303777 97
643900164762989644 77
643900164770675511 60
643900164778361378 46
643900164786047245 36
643900164793733112 38
643900164801418979 46
643900164809104846 46
643900164816790713 46
643900164824476580 51
643900164832162447 51
643900164839848314 48
643900164847534181 55
643900164855220048 60
643900164862905915 58
643900164870591782 51
643900164878277649 51
643900164885963516 53
643900164893649383 58
643900164901335250 60
643900164909021117 63
643900164916706984 58
643900164924392903 53
643900164932078770 55
643900164939764637 53
643900164947450504 51
643900164955136371 53
643900164962822238 51
643900164970508105 43
643900164978193972 38
643900164985879839 38
643900164993565706 43
643900165001251573 46
643900165008937440 38
643900165016623307 36
643900165024309174 41
643900165031995041 41
643900165039680908 36
643900165047366775 34
643900165055052642 34
643900165062738509 38
643900165070424376 41
643900165078110243 38
643900165085796110 36
643900165093481977 36
643900165101167844 26
643900165108853711 21
643900165116539578 24
643900165124225445 29
643900165131911312 31
643900165139597179 38
643900165147283046 55
643900165154968913 70
643900165162654780 70
643900165170340647 51
643900165178026514 38
643900165185712381 38
643900165193398248 41
643900165201084115 41
643900165208769982 12
643900165216455849 -43
643900165224141716 19
643900165231827583 366
643900165239513450 893
643900165247199317 1326
643900165254885184 1268
643900165262571051 558
643900165270256918 -128
643900165277942785 -213
643900165285628652 -92
643900165293314519 -128
643900165301000386 -148
643900165308686253 -104
643900165316372120 -102
643900165324057987 -114
643900165331743854 -102
643900165339429721 -87
643900165347115588 -80
643900165354801455 -70
643900165362487322 -63
643900165370173189 -53
643900165377859056 -41
643900165385544923 -24
643900165393230790 0
643900165400916657 31
643900165408602524 65
643900165416288391 99
643900165423974258 136
643900165431660125 172
643900165439345992 191
643900165447031859 199
643900165454717726 201
643900165462403593 189
643900165470089460 153
643900165477775327 97
643900165485431150 31
643900165493117435 -24
643900165500803720 -65
643900165508490005 -94
643900165516176290 -116
643900165523862575 -136
643900165531548860 -145
643900165539235145 -140
643900165546921430 -131
643900165554607715 -128
643900165562294000 -123
643900165569980285 -121
643900165577666570 -121
643900165585352855 -109
643900165593039140 -92
643900165600725425 -85
643900165608411710 -82
643900165616097995 -75
643900165623784280 -68
643900165631470565 -60
643900165639156850 -51
643900165646843135 -46
643900165654529420 -46
643900165662215705 -43
643900165669901990 -41
643900165677588275 -46
643900165685274560 -43
643900165692960845 -38
643900165700647130 -41
643900165708333415 -41
643900165716019700 -36
643900165723705985 -34
643900165731392270 -36
643900165739078555 -34
643900165746764840 -29
643900165754451125 -29
643900165762137410 -34
643900165769823695 -34
643900165777509980 -26
643900165785196265 -26
643900165792882550 -24
643900165800568835 -19
643900165808255120 -21
643900165815941405 -29
643900165823627690 -31
643900165831313975 -31
643900165839000260 -31
643900165846686545 -19
643900165854372830 0
643900165862059115 12
643900165869745400 0
643900165877431685 -26
643900165885117970 -36
643900165892804255 -29
643900165900490540 -24
643900165908176825 -26
643900165915863110 -55
643900165923549395 -106
643900165931235680 -12
643900165938921965 383
643900165946608250 932
643900165954294535 1314
643900165961980820 1151
643900165969667105 378
643900165977353390 -247
643900165985039675 -257
643900165992725960 -138
643900166000412245 -182
643900166008098530 -187
643900166015784815 -138
643900166023471100 -140
643900166031157385 -140
643900166038843670 -119
643900166046560111 -104
643900166054245978 -89
643900166061931845 -77
643900166069617712 -72
643900166077303579 -65
643900166084989446 -46
643900166092675313 -31
643900166100361180 -12
643900166108047047 21
643900166115732914 58
643900166123418781 92
643900166131104648 133
643900166138790515 174
643900166146476382 201
643900166154162249 204
643900166161848116 189
643900166169533983 167
643900166177219850 119
643900166184905717 41
643900166192591584 -31
643900166200277451 -87
643900166207963318 -131
643900166215649185 -160
643900166223335052 -182
643900166231020919 -189
643900166238706786 -179
643900166246392653 -174
643900166254078520 -174
643900166261764387 -170
643900166269450254 -160
643900166277136121 -155
643900166284821988 -150
643900166292507855 -138
643900166300193722 -123
643900166307879589 -119
643900166315565456 -119
643900166323251323 -114
643900166330937190 -104
643900166338623057 -97
643900166346308924 -87
643900166353994791 -80
643900166361680658 -80
643900166369366525 -82
643900166377052392 -85
643900166384738259 -85
643900166392424126 -75
643900166400109993 -72
643900166407795860 -80
643900166415481727 -77
643900166423167594 -68
643900166430853461 -72
643900166438539328 -80
643900166446225195 -75
643900166453911062 -68
643900166461596929 -65
643900166469282796 -63
643900166476968663 -63
643900166484654530 -58
643900166492340397 -51
643900166500026264 -55
643900166507712131 -63
643900166515397998 -58
643900166523083865 -60
643900166530769732 -63
643900166538455599 -41
643900166546141466 -12
643900166553827333 -7
643900166561513200 -19
643900166569199067 -34
643900166576884934 -43
643900166584570801 -41
643900166592256668 -31
643900166599942535 -41
643900166607628454 -89
643900166615314321 -121
643900166623000188 55
643900166630686055 534
643900166638371922 1107
643900166646057789 1425
643900166653743656 1049
643900166661429523 145
643900166669115390 -340
643900166676801257 -230
643900166684487124 -172
643900166692172991 -238
643900166699858858 -201
643900166707544725 -170
643900166715230592 -187
643900166722916459 -170
643900166730602326 -138
643900166738288193 -131
643900166745974060 -123
643900166753659927 -104
643900166761345794 -89
643900166769031661 -75
643900166776717528 -53
643900166784403395 -29
643900166792089262 -7
643900166799775129 21
643900166807460996 55
643900166815146863 99
643900166822832730 145
643900166830518597 179
643900166838204464 196
643900166845890331 201
643900166853576198 191
643900166861262065 155
643900166868947932 94
643900166876633799 17
643900166884319666 -60
643900166892005533 -121
643900166899691400 -160
643900166907377267 -182
643900166915063134 -191
643900166922749001 -201
643900166930434868 -211
643900166938120735 -206
643900166945806602 -196
643900166953492469 -194
643900166961178336 -189
643900166968864203 -182
643900166976550070 -174
643900166984235937 -170
643900166991921804 -165
643900166999607671 -153
643900167007293538 -138
643900167014979405 -128
643900167022665272 -123
643900167030351139 -116
643900167038037006 -111
643900167045722873 -106
643900167053408740 -99
643900167061094607 -94
643900167068780474 -92
643900167076466341 -94
643900167084152208 -94
643900167091838075 -92
643900167099523942 -87
643900167107209809 -85
643900167114895676 -82
643900167122581543 -82
643900167130267410 -85
643900167137953277 -80
643900167145639144 -75
643900167153325011 -72
643900167161010878 -70
643900167168696797 -68
643900167176382664 -65
643900167184068531 -68
643900167191754398 -75
643900167199440265 -80
643900167207126132 -80
643900167214811999 -80
643900167222497866 -72
643900167230183733 -48
643900167237869600 -19
643900167245555467 -12
643900167253241334 -34
643900167260927201 -46
643900167268613068 -43
643900167276298935 -46
643900167283984802 -48
643900167291670669 -72
643900167299356536 -143
643900167307042403 -138
643900167314728270 182
643900167322414137 828
643900167330100004 1554
643900167337785871 1758
643900167345471738 937
643900167353157605 -131
643900167360843472 -383
643900167368529339 -199
643900167376215206 -245
643900167383901073 -313
643900167391586940 -245
643900167399272807 -228
643900167406958674 -242
643900167414644541 -216
643900167422330408 -196
643900167430016275 -191
643900167437702142 -172
643900167445388009 -148
643900167453073876 -133
643900167460759743 -116
643900167468445610 -92
643900167476131477 -70
643900167483817344 -43
643900167491503211 -9
643900167499189078 29
643900167506874945 68
643900167514560812 104
643900167522246679 136
643900167529932546 155
643900167537618413 153
643900167545304280 133
643900167552990147 99
643900167560676014 46
643900167568361881 -19
643900167576047748 -77
643900167583733615 -116
643900167591419482 -143
643900167599105349 -157
643900167606791216 -165
643900167614477083 -165
643900167622162950 -167
643900167629848817 -174
643900167637534684 -170
643900167645220551 -160
643900167652906418 -153
643900167660592285 -150
643900167668278152 -150
643900167675964019 -148
643900167683649886 -148
643900167691335753 -145
643900167699021620 -138
643900167706707487 -131
643900167714393354 -123
643900167722079221 -119
643900167729765140 -116
643900167737451007 -111
643900167745136874 -104
643900167752822741 -99
643900167760508608 -97
643900167768194475 -94
643900167775880342 -99
643900167783566209 -106
643900167791252076 -104
643900167798937943 -99
643900167806623810 -97
643900167814309677 -94
643900167821995544 -94
643900167829681411 -94
643900167837367278 -89
643900167845053145 -85
643900167852739012 -82
643900167860424879 -80
643900167868110746 -80
643900167875796613 -77
643900167883482480 -80
643900167891168347 -82
643900167898854214 -85
643900167906540081 -92
643900167914225948 -102
643900167921911815 -102
643900167929597682 -97
643900167937283549 -87
643900167944969416 -63
643900167952655283 -31
643900167960341150 -19
643900167968027017 -38
643900167975712884 -60
643900167983398751 -65
643900167991084618 -63
643900167998770485 -58
643900168006456352 -68
643900168014142219 -121
643900168021828086 -160
643900168029513953 19
643900168037199820 541
643900168044885687 1275
643900168052571554 1766
643900168060257421 1348
643900168067943288 242
643900168075629155 -371
643900168083315022 -272
643900168091000889 -213
643900168098686756 -310
643900168106372623 -279
643900168114058490 -223
643900168121744357 -242
643900168129430224 -235
643900168137116091 -204
643900168144801958 -196
643900168152487825 -184
643900168160173692 -162
643900168167859559 -145
643900168175545426 -131
643900168183231293 -111
643900168190917160 -87
643900168198603027 -65
643900168206288894 -31
643900168213974761 2
643900168221660628 36
643900168229346495 70
643900168237032362 99
643900168244718229 123
643900168252404096 136
643900168260089963 131
643900168267775830 111
643900168275461697 68
643900168283147564 2
643900168290833483 -58
643900168298519350 -99
643900168306205217 -133
643900168313891084 -155
643900168321576951 -167
643900168329262818 -177
643900168336948685 -179
643900168344634552 -172
643900168352320419 -167
643900168360006286 -160
643900168367692153 -155
643900168375378020 -157
643900168383063887 -160
643900168390749754 -157
643900168398435621 -157
643900168406121488 -155
643900168413807355 -148
643900168421493222 -145
643900168429179089 -145
643900168436864956 -140
643900168444550823 -138
643900168452236690 -133
643900168459922557 -128
643900168467608424 -126
643900168475294291 -121
643900168482980158 -119
643900168490666025 -116
643900168498351892 -111
643900168506037759 -111
643900168513723626 -109
643900168521409493 -109
643900168529095360 -111
643900168536781227 -111
643900168544467094 -106
643900168552152961 -104
643900168559838828 -104
643900168567524695 -102
643900168575210562 -99
643900168582896429 -94
643900168590582296 -92
643900168598268163 -92
643900168605954030 -89
643900168613639897 -85
643900168621325764 -82
643900168629011631 -82
643900168636697498 -80
643900168644383365 -75
643900168652069232 -75
643900168659755099 -75
643900168667440966 -72
643900168675126833 -77
643900168682812700 -82
643900168690498567 -82
643900168698184434 -87
643900168705870301 -94
643900168713556168 -87
643900168721242035 -72
643900168728927902 -63
643900168736613769 -48
643900168744299636 -21
643900168751985503 -7
643900168759671370 -24
643900168767357237 -46
643900168775043104 -53
643900168782728971 -55
643900168790414838 -58
643900168798100705 -58
643900168805786572 -92
643900168813472439 -150
643900168821158306 -72
643900168828844173 308
643900168836530040 935
643900168844215907 1515
643900168851901826 1457
643900168859587693 561
643900168867273560 -238
643900168874959427 -303
643900168882645294 -191
643900168890331161 -264
643900168898017028 -284
643900168905702895 -233
643900168913388762 -238
643900168921074629 -242
643900168928760496 -223
643900168936446363 -208
643900168944132230 -196
643900168951818097 -177
643900168959503964 -160
643900168967189831 -143
643900168974875698 -126
643900168982561565 -104
643900168990247432 -77
643900168997933299 -51
643900169005619166 -21
643900169013305033 9
643900169020990900 38
643900169028676767 63
643900169036362634 89
643900169044048501 104
643900169051734368 106
643900169059420235 97
643900169067106102 68
643900169074791969 14
643900169082477836 -46
643900169090163703 -94
643900169097849570 -128
643900169105535437 -155
643900169113221304 -174
643900169120907171 -184
643900169128593038 -189
643900169136278905 -189
643900169143964772 -179
643900169151650639 -174
643900169159336506 -174
643900169167022373 -170
643900169174708240 -165
643900169182394107 -165
643900169190079974 -162
643900169197765841 -157
643900169205451708 -153
643900169213137575 -145
643900169220823442 -140
643900169228509309 -140
643900169236195176 -133
643900169243881043 -128
643900169251566910 -131
643900169259252777 -126
643900169266938644 -123
643900169274624511 -123
643900169282310378 -126
643900169289996245 -123
643900169297682112 -121
643900169305367979 -121
643900169313053846 -119
643900169320739713 -116
643900169328425580 -114
643900169336111447 -111
643900169343797314 -109
643900169351483181 -109
643900169359169048 -106
643900169366854915 -102
643900169374540782 -106
643900169382226649 -111
643900169389912516 -109
643900169397598383 -104
643900169405284250 -104
643900169412970173 -109
643900169420656040 -111
643900169428341907 -109
643900169436027774 -106
643900169443713641 -102
643900169451399508 -94
643900169459085375 -89
643900169466771242 -94
643900169474457109 -99
643900169482142976 -102
643900169489828843 -94
643900169497514710 -89
643900169505200577 -92
643900169512886444 -97
643900169520572311 -94
643900169528258178 -92
643900169535944045 -97
643900169543629912 -102
643900169551315779 -106
643900169559001646 -102
643900169566687513 -82
643900169574373380 -72
643900169582059247 -68
643900169589745114 -51
643900169597430981 -29
643900169605116848 -34
643900169612802715 -60
643900169620488582 -72
643900169628174449 -70
643900169635860316 -68
643900169643546183 -60
643900169651232050 -75
643900169658917917 -128
643900169666603784 -133
643900169674289651 99
643900169681975518 575
643900169689661385 1083
643900169697347252 1246
643900169705033119 723
643900169712718986 -77
643900169720404853 -354
643900169728090720 -223
643900169735776587 -216
643900169743462454 -262
643900169751148321 -221
643900169758834188 -206
643900169766520055 -221
643900169774205922 -201
643900169781891789 -179
643900169789577656 -172
643900169797263523 -157
643900169804949390 -145
643900169812635257 -136
643900169820321124 -121
643900169828006991 -102
643900169835692858 -77
643900169843378725 -58
643900169851064592 -34
643900169858750459 4
643900169866436326 46
643900169874122193 72
643900169881808060 94
643900169889493927 116
643900169897179794 121
643900169904865661 109
643900169912551528 87
643900169920237395 43
643900169927923262 -19
643900169935609129 -75
643900169943294996 -114
643900169950980863 -153
643900169958666730 -184
643900169966352597 -196
643900169974038516 -201
643900169981724383 -208
643900169989410250 -213
643900169997096117 -208
643900170004781984 -199
643900170012467851 -191
643900170020153718 -187
643900170027839585 -179
643900170035525452 -174
643900170043211319 -170
643900170050897186 -162
643900170058583053 -153
643900170066268920 -148
643900170073954787 -150
643900170081640654 -157
643900170089326521 -148
643900170097012388 -140
643900170104698255 -138
643900170112384122 -133
643900170120069989 -126
643900170127755856 -123
643900170135441723 -126
643900170143127590 -126
643900170150813457 -128
643900170158499324 -128
643900170166185191 -123
643900170173871058 -116
643900170181556925 -104
643900170189242792 -102
643900170196928659 -109
643900170204614526 -109
643900170212300393 -99
643900170219986260 -92
643900170227672127 -94
643900170235357994 -97
643900170243043861 -92
643900170250729728 -87
643900170258415595 -89
643900170266101462 -89
643900170273787329 -92
643900170281473196 -89
643900170289159063 -77
643900170296844930 -65
643900170304530797 -65
643900170312216664 -75
643900170319902531 -80
643900170327588398 -80
643900170335274265 -75
643900170342960132 -75
643900170350645999 -72
643900170358331866 -60
643900170366017733 -51
643900170373703600 -43
643900170381389467 -26
643900170389075334 -9
643900170396761201 -12
643900170404447068 -34
643900170412132935 -48
643900170419818802 -53
643900170427504669 -55
643900170435190536 -58
643900170442876403 -60
643900170450562270 -92
643900170458248137 -121
643900170465934004 46
643900170473619871 476
643900170481305738 949
643900170488991605 1127
643900170496677472 726
643900170504363339 -7
643900170512049206 -347
643900170519735073 -240
643900170527420940 -189
643900170535106859 -218
643900170542792726 -187
643900170550478593 -170
643900170558164460 -179
643900170565850327 -170
643900170573536194 -153
643900170581222061 -148
643900170588907928 -140
643900170596593795 -123
643900170604279662 -114
643900170611965529 -102
643900170619651396 -70
643900170627337263 -53
643900170635023130 -48
643900170642708997 -14
643900170650394864 29
643900170658080731 68
643900170665766598 109
643900170673452465 145
643900170681138332 167
643900170688824199 179
643900170696510066 179
643900170704195933 155
643900170711881800 109
643900170719567667 38
643900170727253534 -34
643900170734939401 -97
643900170742625268 -148
643900170750311135 -182
643900170757997002 -194
643900170765682869 -204
643900170773368736 -216
643900170781054603 -216
643900170788740470 -204
643900170796426337 -196
643900170804112204 -191
643900170811798071 -184
643900170819483938 -177
643900170827169805 -177
643900170834855672 -170
643900170842541539 -157
643900170850227406 -150
643900170857913273 -143
643900170865599140 -133
643900170873285007 -128
643900170880970874 -123
643900170888656741 -114
643900170896342608 -109
643900170904028475 -111
643900170911714342 -119
643900170919400209 -123
643900170927086076 -126
643900170934771943 -123
643900170942457810 -121
643900170950143677 -119
643900170957829544 -114
643900170965515411 -111
643900170973201278 -109
643900170980887145 -114
643900170988573012 -116
643900170996258879 -119
643900171003944746 -116
643900171011630613 -109
643900171019316480 -104
643900171027002347 -106
643900171034688214 -102
643900171042374081 -97
643900171050059948 -99
643900171057745815 -99
643900171065431682 -97
643900171073117549 -102
643900171080803416 -109
643900171088489283 -111
643900171096175202 -111
643900171103861069 -99
643900171111546936 -85
643900171119232803 -60
643900171126918670 -46
643900171134604537 -55
643900171142290404 -72
643900171149976271 -77
643900171157662138 -75
643900171165348005 -77
643900171173033872 -89
643900171180719739 -121
643900171188405606 -172
643900171196091473 -143
643900171203777340 133
643900171211463207 626
643900171219149074 1110
643900171226834941 1202
643900171234520808 570
643900171242206675 -218
643900171249892542 -388
643900171257578409 -240
643900171265264276 -259
643900171272950143 -293
643900171280636010 -257
643900171288321877 -250
643900171296007744 -250
643900171303693611 -225
643900171311379478 -206
643900171319065345 -199
643900171326751212 -189
643900171334437079 -167
643900171342122946 -150
643900171349808813 -148
643900171357494680 -131
643900171365180547 -97
643900171372866414 -65
643900171380552281 -43
643900171388238148 -12
643900171395924015 24
643900171403609882 53
643900171411295749 87
643900171418981616 111
643900171426667483 102
643900171434353350 72
643900171442039217 51
643900171449725084 12
643900171457410951 -60
643900171465096818 -126
643900171472782685 -162
643900171480468552 -199
643900171488154419 -230
643900171495840286 -230
643900171503526153 -230
643900171511212020 -230
643900171518897887 -228
643900171526583754 -230
643900171534269621 -230
643900171541955488 -218
643900171549641355 -208
643900171557327222 -204
643900171565013089 -191
643900171572698956 -182
643900171580384823 -177
643900171588070690 -167
643900171595756557 -155
643900171603442424 -150
643900171611128291 -138
643900171618814158 -126
643900171626500025 -119
643900171634185892 -114
643900171641871759 -106
643900171649557626 -99
643900171657243545 -97
643900171664929412 -92
643900171672615279 -87
643900171680301146 -85
643900171687987013 -82
643900171695672880 -80
643900171703358747 -75
643900171711044614 -70
643900171718730481 -68
643900171726416348 -68
643900171734102215 -65
643900171741788082 -60
643900171749473949 -55
643900171757159816 -51
643900171764845683 -48
643900171772531550 -48
643900171780217417 -60
643900171787903284 -68
643900171795589151 -65
643900171803275018 -60
643900171810960885 -41
643900171818646752 -12
643900171826332619 2
643900171834018486 -7
643900171841704353 -24
643900171849390220 -29
643900171857076087 -29
643900171864761954 -29
643900171872447821 -31
643900171880133688 -63
643900171887819555 -133
643900171895505422 -114
643900171903191289 208
643900171910877156 835
643900171918563023 1510
643900171926248890 1632
643900171933934757 755
643900171941620624 -242
643900171949306491 -378
643900171956992358 -182
643900171964678225 -255
643900171972364092 -310
643900171980049959 -245
643900171987735826 -240
643900171995421693 -255
643900172003107560 -230
643900172010793427 -216
643900172018479294 -211
643900172026165161 -194
643900172033851028 -177
643900172041536895 -160
643900172049222762 -140
643900172056908629 -123
643900172064594496 -104
643900172072280363 -75
643900172079966230 -41
643900172087652097 -4
643900172095337964 36
643900172103023831 75
643900172110709698 104
643900172118395565 121
643900172126081432 121
643900172133767299 104
643900172141453166 65
643900172149139033 2
643900172156824900 -70
643900172164510767 -128
643900172172196634 -172
643900172179882501 -204
643900172187568368 -221
643900172195254235 -225
643900172202940102 -228
643900172210625969 -228
643900172218306848 -223
643900172225992785 -225
643900172233678722 -225
643900172241364659 -216
643900172249050596 -208
643900172256736533 -196
643900172264422470 -189
643900172272108407 -187
643900172279794344 -182
643900172287480281 -172
643900172295166218 -160
643900172302852155 -153
643900172310538092 -143
643900172318224029 -131
643900172325909966 -126
643900172333595903 -123
643900172341281840 -123
643900172348967777 -123
643900172356653714 -123
643900172364339651 -114
643900172372025588 -109
643900172379711525 -119
643900172387397462 -121
643900172395083399 -111
643900172402769336 -104
643900172410455273 -106
643900172418141210 -116
643900172425827147 -119
643900172433513084 -111
643900172441199021 -102
643900172448884958 -94
643900172456570895 -94
643900172464256832 -94
643900172471942769 -99
643900172479628706 -109
643900172487314643 -121
643900172495000580 -119
643900172502686517 -114
643900172510372454 -121
643900172518058391 -104
643900172525744328 -63
643900172533430265 -46
643900172541116202 -48
643900172548802139 -55
643900172556488076 -60
643900172564174013 -48
643900172571859950 -43
643900172579545887 -68
643900172587231824 -102
643900172594917761 -145
643900172602603698 -157
643900172610289635 80
643900172617975572 733
643900172625661509 1608
643900172633347446 2004
643900172641033383 1297
643900172648719320 89
643900172656405257 -403
643900172664091194 -245
643900172671777131 -245
643900172679463068 -361
643900172687149005 -303
643900172694834942 -259
643900172702520879 -284
643900172710206816 -267
643900172717892753 -247
643900172725578690 -242
643900172733264627 -211
643900172740950564 -187
643900172748636501 -194
643900172756322438 -182
643900172764008375 -150
643900172771694312 -131
643900172779360194 -123
643900172787046410 -104
643900172794732626 -68
643900172802418842 -38
643900172810105058 -9
643900172817791274 19
643900172825477490 36
643900172833163706 36
643900172840849922 36
643900172848536138 17
643900172856222354 -21
643900172863908570 -60
643900172871594786 -97
643900172879281002 -133
643900172886967218 -172
643900172894653434 -201
643900172902339650 -206
643900172910025866 -208
643900172917712082 -216
643900172925398298 -204
643900172933084514 -187
643900172940770730 -187
643900172948456946 -184
643900172956143162 -182
643900172963829378 -189
643900172971515594 -189
643900172979201810 -170
643900172986888026 -153
643900172994574242 -148
643900173002260458 -150
643900173009946674 -150
643900173017632890 -136
643900173025319106 -116
643900173033005322 -114
643900173040691538 -136
643900173048377754 -136
643900173056063970 -106
643900173063750186 -99
643900173071436402 -106
643900173079122618 -97
643900173086808834 -85
643900173094495050 -80
643900173102181266 -82
643900173109867482 -87
643900173117553698 -87
643900173125239914 -82
643900173132926130 -85
643900173140612346 -89
643900173148298562 -77
643900173155984778 -58
643900173163670994 -65
643900173171357210 -87
643900173179043426 -87
643900173186729642 -72
643900173194415858 -58
643900173202102074 -58
643900173209788290 -70
643900173217474506 -75
643900173225160722 -82
643900173232846938 -94
643900173240533154 -80
643900173248219370 -51
643900173255905586 -34
643900173263591802 -19
643900173271278018 -24
643900173278964234 -41
643900173286650450 -46
643900173294336666 -51
643900173302022882 -63
643900173309709098 -58
643900173317395314 -75
643900173325081530 -138
643900173332767746 -75
643900173340479096 330
643900173348164963 1022
643900173355850830 1666
643900173363536697 1610
643900173371222564 631
643900173378908431 -250
643900173386594298 -313
643900173394280165 -184
643900173401966032 -274
643900173409651899 -286
643900173417337766 -211
643900173425023633 -225
643900173432709500 -255
643900173440395367 -228
643900173448081234 -201
643900173455767101 -189
643900173463452968 -179
643900173471138835 -174
643900173478824702 -162
643900173486510569 -143
643900173494196436 -126
643900173501882303 -102
643900173509568170 -70
643900173517254037 -34
643900173524939904 7
643900173532625771 43
643900173540311638 72
643900173547997505 99
643900173555683372 116
643900173563369239 109
643900173571055106 87
643900173578740973 58
643900173586426840 24
643900173594112707 -31
643900173601798574 -109
643900173609484441 -153
643900173617170308 -162
643900173624856175 -194
643900173632542042 -218
643900173640227909 -199
643900173647913776 -189
643900173655599643 -218
643900173663285510 -211
643900173670971377 -167
643900173678657244 -172
643900173686343111 -199
643900173694028978 -182
643900173701714845 -145
643900173709400712 -133
643900173717086579 -155
643900173724772446 -167
643900173732458313 -136
643900173740144180 -114
643900173747830047 -114
643900173755515914 -109
643900173763201781 -104
643900173770887648 -114
643900173778573515 -121
643900173786259382 -82
643900173793945249 -43
643900173801631116 -75
643900173809316983 -121
643900173817002850 -114
643900173824688717 -65
643900173832374584 -60
643900173840060451 -94
643900173847746318 -92
643900173855432185 -85
643900173863118052 -87
643900173870803919 -60
643900173878489786 -46
643900173886175653 -72
643900173893861520 -82
643900173901547439 -63
643900173909233306 -75
643900173916919173 -87
643900173924605040 -46
643900173932290907 -31
643900173939976774 -80
643900173947662641 -99
643900173955348508 -80
643900173963034375 -77
643900173970720242 -80
643900173978406109 -63
643900173986091976 -29
643900173993777843 -7
643900174001463710 -51
643900174009149577 -102
643900174016835444 -65
643900174024521311 -34
643900174032207178 -65
643900174039893045 -92
643900174047578912 -121
643900174055264779 -143
643900174062950646 92
643900174070636513 672
643900174078322380 1272
643900174086008247 1416
643900174093694114 806
643900174101379981 -48
643900174109065848 -330
643900174116751715 -204
643900174124437582 -218
643900174132123449 -281
643900174139809316 -240
643900174147495183 -221
643900174155181050 -233
643900174162866917 -230
643900174170552784 -216
643900174178238651 -204
643900174185924518 -182
643900174193610385 -131
643900174201296252 -104
643900174208982119 -133
643900174216667986 -140
643900174224353853 -111
643900174232039720 -68
643900174239725587 -19
643900174247411454 12
643900174255097321 41
643900174262783188 70
643900174270469055 75
643900174278154922 82
643900174285840789 106
643900174293526656 109
643900174301212523 82
643900174308898390 34
643900174316584257 -38
643900174324270124 -102
643900174331955991 -123
643900174339641858 -145
643900174347327725 -172
643900174355013592 -184
643900174362699459 -165
643900174370385326 -136
643900174378071193 -150
643900174385757060 -182
643900174393442927 -157
643900174401128794 -133
643900174408814661 -150
643900174416500528 -155
643900174424186395 -145
643900174431872262 -145
643900174439558129 -145
643900174447243996 -148
643900174454929863 -157
643900174462585686 -157
643900174470271971 -150
643900174477958256 -140
643900174485644541 -126
643900174493330826 -121
643900174501017111 -116
643900174508703396 -119
643900174516389681 -136
643900174524075966 -143
643900174531762251 -138
643900174539448536 -131
643900174547134821 -123
643900174554821106 -126
643900174562507391 -136
643900174570193676 -128
643900174577879961 -109
643900174585566246 -109
643900174593252531 -126
643900174600938816 -131
643900174608625101 -114
643900174616311386 -106
643900174623997671 -119
643900174631683956 -126
643900174639370241 -123
643900174647056526 -116
643900174654742811 -106
643900174662429096 -97
643900174670115381 -94
643900174677801666 -82
643900174685487951 -68
643900174693174236 -77
643900174700860521 -94
643900174708546806 -92
643900174716233091 -99
643900174723919376 -104
643900174731605661 -99
643900174739291946 -106
643900174746978231 -136
643900174754664516 -157
643900174762350801 -65
643900174770037086 279
643900174777723371 750
643900174785409656 1012
643900174793095941 745
643900174800782226 99
643900174808468511 -264
643900174816154796 -223
643900174823841081 -201
643900174831527366 -235
643900174839213651 -211
643900174846899936 -194
643900174854586221 -187
643900174862272506 -170
643900174869958791 -167
643900174877645076 -170
643900174885331361 -160
643900174893017646 -138
643900174900703931 -114
643900174908390216 -94
643900174916076501 -85
643900174923762786 -65
643900174931449071 -43
643900174939135356 -36
643900174946821641 -17
643900174954507926 31
643900174962194211 68
643900174969880496 77
643900174977566781 85
643900174985253066 104
643900174992939351 116
643900175000625636 99
643900175008311921 48
643900175015998206 -7
643900175023714643 -43
643900175031400510 -97
643900175039086377 -153
643900175046772244 -172
643900175054458111 -174
643900175062143978 -182
643900175069829845 -184
643900175077515712 -184
643900175085201579 -174
643900175092887446 -177
643900175100573313 -189
643900175108259180 -174
643900175115945047 -150
643900175123630914 -150
643900175131316781 -148
643900175139002648 -136
643900175146688515 -133
643900175154374382 -131
643900175162060249 -123
643900175169746116 -121
643900175177431983 -133
643900175185117850 -138
643900175192803717 -121
643900175200489584 -131
643900175208175451 -148
643900175215861318 -128
643900175223547185 -111
643900175231233052 -121
643900175238918919 -123
643900175246604786 -116
643900175254290653 -114
643900175261976520 -114
643900175269662387 -106
643900175277348254 -99
643900175285034121 -99
643900175292719988 -99
643900175300405855 -99
643900175308091722 -102
643900175315777589 -94
643900175323463456 -94
643900175331149323 -104
643900175338835190 -94
643900175346521057 -87
643900175354206924 -89
643900175361892791 -68
643900175369578658 -46
643900175377264525 -53
643900175384950392 -72
643900175392636259 -82
643900175400322126 -85
643900175408007993 -87
643900175415693860 -87
643900175423379727 -92
643900175431065594 -133
643900175438751461 -179
643900175446437328 -46
643900175454123195 381
643900175461809062 942
643900175469494929 1314
643900175477180796 1032
643900175484866663 167
643900175492552530 -359
643900175500238397 -276
643900175507924264 -213
643900175515610131 -298
643900175523295998 -274
643900175530981865 -230
643900175538667732 -252
643900175546353599 -245
643900175554039466 -206
643900175561725333 -196
643900175569411200 -194
643900175577097067 -172
643900175584782986 -148
643900175592468853 -123
643900175600154720 -106
643900175607840587 -97
643900175615526454 -72
643900175623212321 -34
643900175630898188 -9
643900175638584055 14
643900175646269922 58
643900175653955789 89
643900175661641656 94
643900175669327523 89
643900175677013390 77
643900175684699257 53
643900175692385124 19
643900175700070991 -31
643900175707756858 -94
643900175715442725 -153
643900175723128592 -194
643900175730814459 -216
643900175738500326 -221
643900175746186193 -225
643900175753872060 -228
643900175761557927 -221
643900175769243794 -213
643900175776929661 -204
643900175784615528 -189
643900175792301395 -187
643900175799987262 -189
643900175807673129 -174
643900175815358996 -162
643900175823044863 -162
643900175830730730 -160
643900175838416597 -155
643900175846102464 -150
643900175853788331 -148
643900175861474198 -143
643900175869160065 -140
643900175876845932 -138
643900175884531799 -138
643900175892217666 -136
643900175899903533 -133
643900175907589400 -133
643900175915275267 -136
643900175922961134 -138
643900175930647001 -138
643900175938332868 -133
643900175946018735 -131
643900175953704602 -131
643900175961390469 -133
643900175969076336 -138
643900175976762203 -138
643900175984448070 -140
643900175992133937 -138
643900175999819804 -128
643900176007505671 -116
643900176015191538 -106
643900176022877405 -97
643900176030563272 -77
643900176038249139 -58
643900176045935006 -70
643900176053620873 -94
643900176061306740 -97
643900176068992607 -87
643900176076678474 -89
643900176084364341 -97
643900176092050208 -126
643900176099736075 -174
643900176107421942 -85
643900176115107809 289
643900176122793676 867
643900176130479543 1355
643900176138165410 1236
643900176145851333 391
643900176153537200 -279
643900176161223067 -279
643900176168908934 -194
643900176176594801 -284
643900176184280668 -284
643900176191966535 -223
643900176199652402 -233
643900176207338269 -235
643900176215024136 -204
643900176222710003 -194
643900176230395870 -184
643900176238081737 -153
643900176245767604 -136
643900176253453471 -128
643900176261139338 -104
643900176268825205 -75
643900176276511072 -51
643900176284196939 -24
643900176291882806 12
643900176299568673 48
643900176307254540 80
643900176314940407 111
643900176322626274 128
643900176330312141 133
643900176337998008 128
643900176345683875 109
643900176353369742 70
643900176361055609 21
643900176368741476 -34
643900176376427343 -89
643900176384113210 -128
643900176391799077 -148
643900176399484944 -155
643900176407170811 -167
643900176414856678 -172
643900176422542545 -170
643900176430228412 -170
643900176437914279 -165
643900176445600146 -150
643900176453286013 -145
643900176460971880 -148
643900176468657747 -143
643900176476343614 -136
643900176484029481 -136
643900176491715348 -128
643900176499401215 -119
643900176507087082 -116
643900176514772949 -116
643900176522458816 -114
643900176530144683 -109
643900176537830550 -106
643900176545516417 -104
643900176553202284 -102
643900176560888151 -104
643900176568574018 -106
643900176576259885 -104
643900176583945752 -104
643900176591631619 -106
643900176599317486 -106
643900176607003353 -102
643900176614689220 -102
643900176622375087 -114
643900176630060954 -123
643900176637746821 -114
643900176645432688 -94
643900176653118555 -87
643900176660804422 -85
643900176668490289 -63
643900176676176156 -41
643900176683862023 -53
643900176691547890 -77
643900176699233757 -82
643900176706919676 -75
643900176714605543 -75
643900176722291410 -72
643900176729977277 -82
643900176737663144 -136
643900176745349011 -165
643900176753034878 24
643900176760720745 495
643900176768406612 1078
643900176776092479 1394
643900176783778346 961
643900176791464213 72
643900176799150080 -327
643900176806835947 -216
643900176814521814 -211
643900176822207681 -291
643900176829893548 -257
643900176837579415 -228
643900176845265282 -240
643900176852951149 -221
643900176860637016 -196
643900176868322883 -189
643900176876008750 -174
643900176883694617 -150
643900176891380484 -133
643900176899066351 -121
643900176906752218 -102
643900176914438085 -72
643900176922123952 -46
643900176929809819 -21
643900176937495686 14
643900176945181553 53
643900176952867420 85
643900176960553287 106
643900176968239154 111
643900176975925021 104
643900176983610888 97
643900176991296755 75
643900176998982622 29
643900177006668489 -29
643900177014354356 -80
643900177022040223 -119
643900177029726090 -145
643900177037411957 -165
643900177045097824 -174
643900177052783691 -174
643900177060469558 -172
643900177068155425 -167
643900177075841292 -160
643900177083527159 -155
643900177091213026 -153
643900177098898893 -145
643900177106584760 -133
643900177114270627 -128
643900177121956494 -123
643900177129642361 -119
643900177137328228 -116
643900177145014095 -119
643900177152699962 -116
643900177160385829 -104
643900177168071696 -99
643900177175757563 -104
643900177183443430 -111
643900177191129297 -106
643900177198815164 -102
643900177206501031 -102
643900177214186898 -99
643900177221872765 -97
643900177229558632 -104
643900177237244499 -106
643900177244930366 -104
643900177252616233 -111
643900177260302100 -116
643900177267967931 -104
643900177275654077 -97
643900177283340223 -94
643900177291026369 -70
643900177298712515 -48
643900177306398661 -58
643900177314084807 -85
643900177321770953 -104
643900177329457099 -109
643900177337143245 -104
643900177344829391 -99
643900177352515537 -104
643900177360201683 -145
643900177367887829 -199
643900177375573975 -109
643900177383260121 274
643900177390946267 850
643900177398632413 1314
643900177406318559 1170
643900177414004705 335
643900177421690851 -310
643900177429376997 -301
643900177437063143 -221
643900177444749289 -306
643900177452435435 -306
643900177460121581 -255
643900177467807727 -264
643900177475493873 -269
643900177483180019 -242
643900177490866165 -225
643900177498552311 -216
643900177506238457 -194
643900177513924603 -172
643900177521610749 -155
643900177529296895 -140
643900177536983041 -116
643900177544669187 -87
643900177552355333 -63
643900177560041479 -31
643900177567727625 7
643900177575413771 41
643900177583099917 65
643900177590786063 85
643900177598472209 92
643900177606158355 80
643900177613844501 60
643900177621530647 21
643900177629216793 -31
643900177636902939 -87
643900177644589085 -133
643900177652275231 -165
643900177659961377 -179
643900177667647523 -191
643900177675333669 -196
643900177683019815 -196
643900177690705961 -191
643900177698392107 -182
643900177706078253 -172
643900177713764399 -165
643900177721450545 -157
643900177729136691 -155
643900177736822837 -148
643900177744508983 -138
643900177752195129 -131
643900177759881275 -128
643900177767567421 -123
643900177775253567 -119
643900177782939713 -116
643900177790625859 -109
643900177798312005 -104
643900177805998151 -102
643900177813684297 -97
643900177821370443 -97
643900177829096798 -99
643900177836782386 -99
643900177844467974 -97
643900177852153562 -94
643900177859839150 -94
643900177867524738 -104
643900177875210326 -114
643900177882895914 -114
643900177890581502 -102
643900177898267090 -85
643900177905952678 -77
643900177913638266 -65
643900177921323854 -41
643900177929009442 -46
643900177936695030 -75
643900177944380618 -87
643900177952066206 -85
643900177959751794 -87
643900177967437382 -85
643900177975122970 -89
643900177982808558 -131
643900177990494146 -189
643900177998179734 -119
643900178005865322 242
643900178013550910 825
643900178021236498 1340
643900178028922086 1268
643900178036607674 451
643900178044293262 -259
643900178051978850 -303
643900178059664438 -208
643900178067350026 -281
643900178075035614 -296
643900178082721202 -245
643900178090406790 -247
643900178098092378 -247
643900178105777966 -218
643900178113463554 -204
643900178121149142 -196
643900178128834730 -179
643900178136520318 -160
643900178144205906 -140
643900178151891494 -126
643900178159577082 -104
643900178167262670 -77
643900178174948258 -51
643900178182633846 -19
643900178190319434 17
643900178198005022 48
643900178205690610 72
643900178213376198 89
643900178221061786 94
643900178228747374 87
643900178236432962 65
643900178244118550 34
643900178251804138 -14
643900178259489726 -70
643900178267175314 -116
643900178274860902 -145
643900178282546490 -165
643900178290232078 -177
643900178297917666 -179
643900178305603254 -174
643900178313288842 -165
643900178320974430 -160
643900178328660018 -157
643900178336345606 -150
643900178344031194 -140
643900178351716782 -131
643900178359402370 -119
643900178367087958 -114
643900178374773546 -111
643900178382459134 -111
643900178390124705 -106
643900178397810572 -97
643900178405496439 -92
643900178413182306 -94
643900178420868173 -92
643900178428554040 -94
643900178436239907 -92
643900178443925774 -82
643900178451611641 -82
643900178459297508 -82
643900178466983375 -80
643900178474669242 -80
643900178482355109 -85
643900178490040976 -89
643900178497726843 -94
643900178505412710 -97
643900178513098577 -94
643900178520784444 -82
643900178528470311 -75
643900178536156178 -72
643900178543842045 -46
643900178551527912 -21
643900178559213779 -36
643900178566899646 -58
643900178574585513 -68
643900178582271380 -70
643900178589957247 -65
643900178597643114 -55
643900178605328981 -65
643900178613014848 -123
643900178620700715 -165
643900178628386582 -4
643900178636072449 459
643900178643758316 1034
643900178651444183 1357
643900178659130050 1003
643900178666815917 138
643900178674501784 -335
643900178682187651 -240
643900178689873518 -189
643900178697559385 -269
643900178705245252 -250
643900178712931119 -213
643900178720616986 -225
643900178728302853 -218
643900178735988720 -194
643900178743674587 -189
643900178751360454 -182
643900178759046321 -162
643900178766732188 -148
643900178774418055 -131
643900178782103922 -104
643900178789789789 -82
643900178797475656 -63
643900178805161523 -34
643900178812847390 4
643900178820533257 38
643900178828219124 70
643900178835904991 94
643900178843590858 111
643900178851276725 119
643900178858962592 106
643900178866648459 75
643900178874334326 26
643900178882020193 -26
643900178889706060 -82
643900178897391927 -126
643900178905077794 -157
643900178912763661 -177
643900178920449528 -191
643900178928135395 -201
643900178935821262 -201
643900178943507129 -189
643900178951193048 -182
643900178958878915 -174
643900178966564782 -165
643900178974250649 -160
643900178981936516 -153
643900178989622383 -153
643900178997308250 -153
643900179004994117 -138
643900179012679984 -123
643900179020365851 -121
643900179028051718 -123
643900179035737585 -116
643900179043423452 -104
643900179051109319 -106
643900179058795186 -102
643900179066481053 -89
643900179074166920 -109
643900179081852787 -123
643900179089538654 -97
643900179097224521 -77
643900179104910388 -94
643900179112596255 -131
643900179120282122 -133
643900179127967989 -106
643900179135653856 -106
643900179143339723 -119
643900179151025590 -111
643900179158711457 -97
643900179166397324 -75
643900179174083191 -46
643900179181769058 -43
643900179189454925 -70
643900179197140792 -82
643900179204826659 -68
643900179212512526 -55
643900179220198393 -55
643900179227884260 -68
643900179235570127 -116
643900179243255994 -138
643900179250941861 72
643900179258627728 580
643900179266313595 1158
643900179273999462 1413
643900179281685329 935
643900179289371196 29
643900179297057063 -369
643900179304742930 -228
643900179312428797 -194
643900179320114664 -262
643900179327800531 -228
643900179335486398 -201
643900179343172265 -213
643900179350858132 -194
643900179358543999 -174
643900179366229866 -177
643900179373915733 -165
643900179381601600 -148
643900179389287467 -136
643900179396973334 -123
643900179404659201 -97
643900179412345068 -75
643900179420030935 -55
643900179427716802 -21
643900179435402669 21
643900179443088536 60
643900179450774403 94
643900179458460270 123
643900179466146137 138
643900179473832004 136
643900179481517871 116
643900179489203738 77
643900179496889605 19
643900179504575472 -51
643900179512261395 -119
643900179519947262 -162
643900179527633129 -189
643900179535318996 -208
643900179543004863 -211
643900179550690730 -208
643900179558376597 -206
643900179566062464 -204
643900179573748331 -204
643900179581434198 -204
643900179589120065 -194
643900179596805932 -179
643900179604491799 -172
643900179612177666 -167
643900179619863533 -157
643900179627549400 -153
643900179635235267 -145
643900179642921134 -133
643900179650607001 -121
643900179658292868 -116
643900179665978735 -109
643900179673664602 -106
643900179681350469 -106
643900179689036336 -106
643900179696722203 -102
643900179704408070 -102
643900179712093937 -104
643900179719779804 -104
643900179727465671 -102
643900179735151538 -102
643900179742837405 -99
643900179750523272 -94
643900179758209139 -89
643900179765895006 -92
643900179773580873 -102
643900179781266740 -119
643900179788952607 -116
643900179796638474 -106
643900179804324341 -102
643900179812010208 -87
643900179819696075 -51
643900179827381942 -24
643900179835067809 -31
643900179842753676 -46
643900179850439543 -53
643900179858125410 -58
643900179865811277 -58
643900179873497144 -53
643900179881183011 -77
643900179888868878 -148
643900179896554745 -162
643900179904240612 114
643900179911926479 743
643900179919612346 1501
643900179927298213 1809
643900179934984080 1088
643900179942669947 -24
643900179950355814 -381
643900179958041681 -218
643900179965727548 -252
643900179973413415 -335
643900179981099282 -274
643900179988785149 -247
643900179996471016 -267
643900180004156883 -247
643900180011842750 -230
643900180019528617 -230
643900180027214484 -211
643900180034900351 -191
643900180042586218 -179
643900180050272085 -162
643900180057957952 -143
643900180065643819 -123
643900180073314690 -102
643900180081000766 -72
643900180088686842 -43
643900180096372918 -9
643900180104058994 24
643900180111745070 48
643900180119431146 68
643900180127117222 72
643900180134803298 63
643900180142489374 38
643900180150175450 -9
643900180157861526 -68
643900180165547602 -121
643900180173233678 -160
643900180180919754 -191
643900180188605830 -204
643900180196291906 -204
643900180203977982 -201
643900180211664058 -201
643900180219350134 -196
643900180227036210 -191
643900180234722286 -184
643900180242408362 -177
643900180250094438 -170
643900180257780514 -167
643900180265466590 -165
643900180273152666 -160
643900180280838742 -153
643900180288524818 -143
643900180296210894 -133
643900180303896970 -126
643900180311583046 -121
643900180319269122 -116
643900180326955198 -114
643900180334641274 -114
643900180342327350 -106
643900180350013426 -106
643900180357699502 -106
643900180365385578 -102
643900180373071654 -99
643900180380757730 -102
643900180388443806 -99
643900180396129882 -94
643900180403815958 -92
643900180411502034 -92
643900180419188110 -92
643900180426874186 -92
643900180434560262 -89
643900180442246338 -87
643900180449932414 -89
643900180457618490 -99
643900180465304566 -109
643900180472990642 -104
643900180480676718 -89
643900180488362794 -80
643900180496048870 -63
643900180503734946 -36
643900180511421022 -24
643900180519107098 -48
643900180526793174 -70
643900180534479250 -70
643900180542165326 -68
643900180549851402 -68
643900180557537478 -72
643900180565223554 -119
643900180572909630 -187
643900180580595706 -82
643900180588281782 369
643900180595967858 1090
643900180603653934 1702
643900180611340010 1542
643900180619026086 505
643900180626712162 -320
643900180634408302 -340
643900180642094239 -228
643900180649780176 -318
643900180657466113 -327
643900180665152050 -264
643900180672837987 -274
643900180680523924 -284
643900180688209861 -255
643900180695895798 -242
643900180703581735 -238
643900180711267672 -218
643900180718953609 -201
643900180726639546 -194
643900180734325483 -179
643900180742011420 -155
643900180749697357 -131
643900180757383294 -104
643900180765069231 -70
643900180772755168 -38
643900180780441105 -4
643900180788127042 31
643900180795812979 60
643900180803498916 75
643900180811184853 77
643900180818870790 65
643900180826556727 31
643900180834242664 -26
643900180841928601 -85
643900180849614538 -133
643900180857300475 -165
643900180864986412 -187
643900180872672349 -201
643900180880358286 -201
643900180888044223 -196
643900180895730160 -194
643900180903416097 -187
643900180911102034 -179
643900180918787971 -172
643900180926473908 -170
643900180934159845 -165
643900180941845782 -160
643900180949531719 -155
643900180957217656 -150
643900180964903593 -148
643900180972589530 -145
643900180980275467 -138
643900180987961404 -131
643900180995647341 -123
643900181003333278 -116
643900181011019215 -116
643900181018705152 -119
643900181026391089 -119
643900181034077026 -114
643900181041762963 -109
643900181049448900 -106
643900181057134837 -104
643900181064820774 -102
643900181072506711 -99
643900181080192648 -102
643900181087878585 -102
643900181095564522 -102
643900181103250459 -99
643900181110936396 -97
643900181118622333 -94
643900181126308270 -94
643900181133994207 -94
643900181141680144 -92
643900181149366081 -89
643900181157052018 -87
643900181164737955 -85
643900181172423892 -85
643900181180109829 -85
643900181187795766 -80
643900181195476692 -77
643900181203162699 -75
643900181210848706 -70
643900181218534713 -68
643900181226220720 -68
643900181233906727 -70
643900181241592734 -75
643900181249278741 -85
643900181256964748 -89
643900181264650755 -75
643900181272336762 -65
643900181280022769 -65
643900181287708776 -48
643900181295394783 -21
643900181303080790 -21
643900181310766797 -46
643900181318452804 -60
643900181326138811 -65
643900181333824818 -75
643900181341510825 -80
643900181349196832 -97
643900181356882839 -165
643900181364568846 -179
643900181372254853 70
643900181379940860 634
643900181387626867 1316
643900181395312874 1627
643900181402998881 1025
643900181410684888 2
643900181418370895 -395
643900181426056902 -267
643900181433742909 -269
643900181441428916 -340
643900181449114923 -289
643900181456800930 -257
643900181464486937 -272
643900181472172944 -252
643900181479858951 -228
643900181487544958 -221
643900181495230965 -206
643900181502916972 -182
643900181510602979 -167
643900181518288986 -160
643900181525974993 -145
643900181533661000 -121
643900181541347007 -94
643900181549033014 -65
643900181556719021 -34
643900181564405028 2
643900181572091035 36
643900181579777042 68
643900181587463049 87
643900181595149056 99
643900181602835063 102
643900181610521070 87
643900181618207077 51
643900181625893084 -4
643900181633579091 -60
643900181641265098 -104
643900181648951105 -138
643900181656637112 -162
643900181664323119 -172
643900181672009126 -174
643900181679695133 -177
643900181687381140 -174
643900181695067147 -170
643900181702753154 -162
643900181710439161 -155
643900181718125168 -150
643900181725811175 -150
643900181733497182 -150
643900181741183189 -145
643900181748869196 -138
643900181756565285 -133
643900181764251152 -126
643900181771937019 -121
643900181779622886 -116
643900181787308753 -111
643900181794994620 -104
643900181802680487 -97
643900181810366354 -89
643900181818052221 -85
643900181825738088 -85
643900181833423955 -85
643900181841109822 -82
643900181848795689 -80
643900181856481556 -80
643900181864167423 -80
643900181871853290 -82
643900181879539157 -89
643900181887225024 -94
643900181894910891 -89
643900181902596758 -89
643900181910282625 -92
643900181917968492 -87
643900181925654359 -87
643900181933340226 -92
643900181941026093 -92
643900181948711960 -89
643900181956397827 -89
643900181964083694 -89
643900181971769561 -92
643900181979455428 -94
643900181987141295 -92
643900181994827162 -87
643900182002513029 -87
643900182010198896 -85
643900182017884763 -85
643900182025570630 -87
643900182033256497 -92
643900182040942364 -89
643900182048628231 -87
643900182056314098 -85
643900182063999965 -82
643900182071685832 -89
643900182079371699 -94
643900182087057566 -92
643900182094743433 -85
643900182102429300 -82
643900182110115167 -80
643900182117801034 -77
643900182125486901 -77
643900182133172768 -80
643900182140858635 -75
643900182148544502 -70
643900182156230369 -70
643900182163916236 -68
643900182171602103 -68
643900182179287970 -70
643900182186973837 -72
643900182194659704 -72
643900182202345571 -77
643900182210031438 -75
643900182217717305 -60
643900182225403172 -51
643900182233089039 -43
643900182240774906 -21
643900182248460773 -2
643900182256146640 -9
643900182263832507 -31
643900182271518374 -36
643900182279204241 -36
643900182286890108 -36
643900182294575975 -38
643900182302261842 -80
643900182309947709 -145
643900182317633628 -65
643900182325319495 318
643900182333005362 944
643900182340691229 1525
643900182348377096 1484
643900182356062963 600
643900182363748830 -218
643900182371434697 -306
643900182379120564 -199
643900182386806431 -272
643900182394492298 -289
643900182402178165 -230
643900182409864032 -233
643900182417549899 -238
643900182425235766 -213
643900182432921633 -204
643900182440607500 -196
643900182448293367 -177
643900182455979234 -157
643900182463665101 -138
643900182471350968 -121
643900182479036835 -106
643900182486722702 -87
643900182494408569 -63
643900182502094436 -36
643900182509780303 -2
643900182517466170 34
643900182525152037 63
643900182532837904 82
643900182540523771 99
643900182548209638 106
643900182555895505 106
643900182563581372 87
643900182571267239 43
643900182578953106 -9
643900182586638973 -63
643900182594324840 -114
643900182602010707 -148
643900182609696574 -167
643900182617382441 -182
643900182625068308 -189
643900182632754175 -189
643900182640440042 -187
643900182648125909 -184
643900182655811776 -177
643900182663497643 -172
643900182671183510 -170
643900182678869377 -167
643900182686555244 -162
643900182694241111 -160
643900182701926978 -153
643900182709612845 -145
643900182717298712 -138
643900182724984579 -133
643900182732670446 -128
643900182740356313 -123
643900182748042180 -119
643900182755728047 -114
643900182763413914 -114
643900182771099781 -114
643900182778785648 -116
643900182786471515 -111
643900182794157382 -106
643900182801843249 -106
643900182809529116 -111
643900182817214983 -111
643900182824900850 -109
643900182832586717 -109
643900182840272584 -109
643900182847958451 -106
643900182855644318 -106
643900182863330185 -104
643900182871016052 -97
643900182878701975 -94
643900182886387842 -92
643900182894073709 -92
643900182901759576 -87
643900182909445443 -85
643900182917131310 -82
643900182924817177 -87
643900182932503044 -92
643900182940188911 -89
643900182947874778 -85
643900182955560645 -85
643900182963246512 -80
643900182970932379 -77
643900182978618246 -75
643900182986304113 -77
643900182993989980 -77
643900183001675847 -75
643900183009361714 -72
643900183017047581 -70
643900183024733448 -70
643900183032419315 -70
643900183040105182 -72
643900183047791049 -77
643900183055476916 -82
643900183063162783 -82
643900183070848650 -80
643900183078534517 -82
643900183086220384 -82
643900183093906251 -82
643900183101592118 -85
643900183109277985 -89
643900183116963852 -92
643900183124649719 -92
643900183132335586 -85
643900183140021453 -75
643900183147707320 -63
643900183155393187 -46
643900183163079054 -31
643900183170764921 -38
643900183178450788 -65
643900183186136655 -82
643900183193822522 -77
643900183201508389 -72
643900183209194256 -77
643900183216880123 -114
643900183224565990 -167
643900183232251857 -80
643900183239937724 306
643900183247623591 872
643900183255309458 1333
643900183262995325 1251
643900183270681192 461
643900183278367059 -269
643900183286052926 -340
643900183293738793 -216
643900183301424660 -269
643900183309110527 -293
643900183316796394 -245
643900183324482261 -242
643900183332168128 -247
643900183339853995 -218
643900183347539862 -199
643900183355225729 -194
643900183362911596 -177
643900183370597463 -160
643900183378283330 -145
643900183385969197 -126
643900183393655064 -104
643900183401340931 -82
643900183409026798 -58
643900183416712665 -29
643900183424398532 4
643900183432084399 43
643900183439770318 82
643900183447456185 116
643900183455142052 136
643900183462827919 140
643900183470513786 133
643900183478199653 109
643900183485885520 63
643900183493571387 2
643900183501257254 -60
643900183508943121 -111
643900183516628988 -148
643900183524314855 -177
643900183532000722 -201
643900183539686589 -204
643900183547372456 -204
643900183555058323 -211
643900183562744190 -204
643900183570430057 -194
643900183578115924 -191
643900183585801791 -189
643900183593487658 -182
643900183601173525 -174
643900183608859392 -165
643900183616545259 -155
643900183624231126 -148
643900183631916993 -140
643900183639602860 -131
643900183647288727 -121
643900183654974594 -116
643900183662660461 -109
643900183670346328 -102
643900183678032195 -99
643900183685718062 -99
643900183693403929 -97
643900183701089796 -94
643900183708775663 -94
643900183716461530 -99
643900183724147397 -99
643900183731833264 -99
643900183739519131 -97
643900183747204998 -97
643900183754890865 -97
643900183762576732 -94
643900183770262599 -94
643900183777948466 -94
643900183785634333 -94
643900183793320200 -94
643900183801006067 -99
643900183808691934 -99
643900183816377801 -99
643900183824063668 -99
643900183831749535 -102
643900183839435402 -99
643900183847121269 -97
643900183854807136 -99
643900183862493003 -99
643900183870178870 -102
643900183877864737 -106
643900183885550604 -104
643900183893236471 -102
643900183900922338 -99
643900183908608205 -97
643900183916294072 -97
643900183923979939 -97
643900183931665806 -92
643900183939351673 -89
643900183947037540 -89
643900183954723407 -87
643900183962409274 -85
643900183970095141 -85
643900183977781008 -85
643900183985466875 -85
643900183993152742 -85
643900184000838661 -89
643900184008524528 -99
643900184016210395 -99
643900184023896262 -87
643900184031582129 -77
643900184039267996 -68
643900184046953863 -53
643900184054639730 -41
643900184062325597 -46
643900184070011464 -68
643900184077697331 -85
643900184085383198 -87
643900184093069065 -85
643900184100754932 -85
643900184108440799 -121
643900184116126666 -182
643900184123812533 -104
643900184131498400 284
643900184139184267 920
643900184146870134 1515
643900184154556001 1496
643900184162241868 612
643900184169927735 -235
643900184177613602 -337
643900184185299469 -218
643900184192985336 -291
643900184200671203 -310
643900184208357070 -247
643900184216042937 -247
643900184223728804 -257
643900184231414671 -233
643900184239100538 -218
643900184246786405 -208
643900184254472272 -191
643900184262158139 -172
643900184269844006 -155
643900184277529873 -140
643900184285215740 -123
643900184292901607 -104
643900184300587474 -77
643900184308273341 -48
643900184315959208 -14
643900184323645075 21
643900184331330942 55
643900184339016809 89
643900184346702676 116
643900184354388543 126
643900184362074410 126
643900184369760277 109
643900184377446144 68
643900184385132011 7
643900184392817878 -48
643900184400503745 -94
643900184408189612 -128
643900184415875479 -153
643900184423561346 -167
643900184431247213 -174
643900184438933080 -174
643900184446618947 -170
643900184454304814 -165
643900184461990681 -162
643900184469676548 -157
643900184477362415 -157
643900184485048282 -157
643900184492734149 -155
643900184500420016 -150
643900184508105883 -145
643900184515791750 -143
643900184523477617 -140
643900184531163484 -136
643900184538849351 -136
643900184546535218 -133
643900184554221085 -128
643900184561876908 -133
643900184569563193 -133
643900184577249478 -131
643900184584935763 -131
643900184592622048 -128
643900184600308333 -126
643900184607994618 -126
643900184615680903 -123
643900184623367188 -126
643900184631053473 -131
643900184638739758 -128
643900184646426043 -126
643900184654112328 -126
643900184661798613 -123
643900184669484898 -119
643900184677171183 -119
643900184684857468 -116
643900184692543753 -114
643900184700230038 -111
643900184707916323 -109
643900184715602608 -104
643900184723288893 -104
643900184730975178 -104
643900184738661463 -99
643900184746347748 -94
643900184754034033 -94
643900184761720318 -89
643900184769406603 -87
643900184777092888 -87
643900184784779173 -87
643900184792465458 -87
643900184800151743 -82
643900184807838028 -77
643900184815524313 -75
643900184823210598 -72
643900184830896883 -72
643900184838583168 -75
643900184846269453 -72
643900184853955738 -70
643900184861642023 -68
643900184869328308 -68
643900184877014593 -70
643900184884700878 -72
643900184892387163 -77
643900184900073448 -82
643900184907759733 -85
643900184915446018 -77
643900184923132303 -70
643900184930818588 -70
643900184938504873 -55
643900184946191158 -29
643900184953877443 -19
643900184961563728 -38
643900184969250013 -58
643900184976936298 -63
643900184984622583 -60
643900184992308868 -58
643900184999995153 -72
643900185007681438 -128
643900185015367723 -136
643900185023054008 111
643900185030740293 641
643900185038426578 1270
643900185046112863 1566
643900185053799148 1020
643900185061485433 46
643900185069171718 -359
643900185076858003 -245
643900185084544288 -245
643900185092230573 -318
643900185099916858 -269
643900185107603143 -240
643900185115289428 -259
643900185123005865 -240
643900185130691732 -213
643900185138377599 -211
643900185146063466 -199
643900185153749333 -177
643900185161435200 -165
643900185169121067 -153
643900185176806934 -138
643900185184492801 -121
643900185192178668 -97
643900185199864535 -70
643900185207550402 -41
643900185215236269 -7
643900185222922136 29
643900185230608003 65
643900185238293870 92
643900185245979737 104
643900185253665604 106
643900185261351471 99
643900185269037338 68
643900185276723205 12
643900185284409072 -48
643900185292094939 -99
643900185299780806 -143
643900185307466673 -174
643900185315152540 -196
643900185322838407 -208
643900185330524274 -221
643900185338210141 -221
643900185345896008 -216
643900185353581875 -211
643900185361267742 -204
643900185368953609 -199
643900185376639476 -196
643900185384325343 -191
643900185392011210 -187
643900185399697077 -179
643900185407382944 -170
643900185415068811 -165
643900185422754678 -160
643900185430440545 -155
643900185438126412 -148
643900185445812279 -143
643900185453498146 -136
643900185461184013 -128
643900185468869880 -123
643900185476555747 -123
643900185484241614 -123
643900185491927481 -119
643900185499613348 -116
643900185507299215 -116
643900185514985082 -116
643900185522670949 -119
643900185530356816 -121
643900185538042683 -121
643900185545728550 -119
643900185553414417 -116
643900185561100284 -114
643900185568786151 -119
643900185576472018 -123
643900185584157885 -121
643900185591843752 -119
643900185599529619 -121
643900185607215486 -116
643900185614901353 -111
643900185622587220 -111
643900185630273087 -116
643900185637958954 -116
643900185645644821 -109
643900185653330688 -106
643900185661016555 -102
643900185668702422 -102
643900185676388289 -99
643900185684074208 -97
643900185691760075 -92
643900185699445942 -87
643900185707131809 -85
643900185714817676 -85
643900185722503543 -87
643900185730189410 -92
643900185737875277 -89
643900185745561144 -85
643900185753247011 -82
643900185760932878 -82
643900185768618745 -85
643900185776304612 -92
643900185783990479 -97
643900185791676346 -99
643900185799362213 -92
643900185807048080 -80
643900185814733947 -70
643900185822419814 -60
643900185830105681 -38
643900185837791548 -26
643900185845477415 -38
643900185853163282 -60
643900185860849149 -68
643900185868535016 -65
643900185876220883 -65
643900185883906750 -77
643900185891592617 -131
643900185899278484 -145
643900185906964351 72
643900185914650218 573
643900185922336085 1170
643900185930021952 1489
643900185937707819 1039
643900185945393686 104
643900185953079553 -347
643900185960765420 -242
643900185968451287 -223
643900185976137154 -306
643900185983823021 -274
643900185991508888 -238
643900185999194755 -250
643900186006880622 -235
643900186014566489 -211
643900186022252356 -206
643900186029938223 -196
643900186037624090 -172
643900186045309957 -155
643900186052995824 -140
643900186060681691 -121
643900186068367558 -106
643900186076053425 -94
643900186083739292 -70
643900186091425159 -36
643900186099111026 0
643900186106796893 36
643900186114482760 77
643900186122168627 106
643900186129854494 121
643900186137540361 123
643900186145226228 116
643900186152912095 92
643900186160597962 41
643900186168283829 -21
643900186175969696 -80
643900186183655563 -123
643900186191341430 -155
643900186199027297 -174
643900186206713164 -182
643900186214399031 -187
643900186222084898 -191
643900186229770765 -191
643900186237456632 -184
643900186245132475 -182
643900186252818482 -182
643900186260504489 -182
643900186268190496 -182
643900186275876503 -182
643900186283562510 -184
643900186291248517 -177
643900186298934524 -170
643900186306620531 -165
643900186314306538 -160
643900186321992545 -155
643900186329678552 -155
643900186337364559 -150
643900186345050566 -140
643900186352736573 -138
643900186360422580 -138
643900186368108587 -133
643900186375794594 -131
643900186383480601 -131
643900186391166608 -133
643900186398852615 -128
643900186406538622 -126
643900186414224629 -123
643900186421910636 -121
643900186429596643 -119
643900186437282650 -119
643900186444968657 -114
643900186452654664 -111
643900186460340671 -111
643900186468026678 -111
643900186475712685 -109
643900186483398692 -104
643900186491084699 -102
643900186498770706 -102
643900186506456713 -102
643900186514142720 -102
643900186521828727 -97
643900186529514734 -92
643900186537200741 -92
643900186544886748 -92
643900186552572755 -89
643900186560258762 -87
643900186567944769 -85
643900186575630776 -92
643900186583316783 -102
643900186591002790 -106
643900186598688797 -102
643900186606374804 -92
643900186614060811 -82
643900186621746818 -70
643900186629432825 -51
643900186637118832 -34
643900186644804839 -38
643900186652490846 -58
643900186660176853 -68
643900186667862860 -68
643900186675548867 -70
643900186683234874 -75
643900186690920881 -104
643900186698606888 -157
643900186706292895 -82
643900186713978902 291
643900186721664909 864
643900186729350916 1357
643900186737036923 1314
643900186744722930 534
643900186752408937 -228
643900186760094944 -330
643900186767780951 -211
643900186775466958 -264
643900186783152965 -289
643900186790838972 -230
643900186798524979 -225
643900186806200984 -235
643900186813887130 -208
643900186821573276 -189
643900186829259422 -187
643900186836945568 -167
643900186844631714 -145
643900186852317860 -133
643900186860004006 -116
643900186867690152 -97
643900186875376298 -80
643900186883062444 -60
643900186890748590 -34
643900186898434736 0
643900186906120882 41
643900186913807028 82
643900186921493174 116
643900186929179320 133
643900186936865466 143
643900186944551612 138
643900186952237758 114
643900186959923904 65
643900186967610050 4
643900186975296196 -60
643900186982982342 -116
643900186990668488 -153
643900186998354634 -182
643900187006040780 -201
643900187013726926 -201
643900187021413072 -201
643900187029099218 -206
643900187036785364 -204
643900187044471510 -191
643900187052157656 -187
643900187059843802 -184
643900187067529948 -177
643900187075216094 -177
643900187082902240 -172
643900187090588386 -162
643900187098274532 -153
643900187105960678 -145
643900187113646824 -138
643900187121332970 -128
643900187129019116 -126
643900187136705262 -123
643900187144391408 -119
643900187152077554 -116
643900187159763700 -114
643900187167449846 -109
643900187175135992 -114
643900187182822138 -119
643900187190508284 -121
643900187198194430 -121
643900187205880576 -121
643900187213566722 -121
643900187221252868 -121
643900187228939014 -121
643900187236625160 -123
643900187244311306 -126
643900187251997452 -123
643900187259683598 -121
643900187267369744 -119
643900187275055890 -119
643900187282742036 -121
643900187290428182 -119
643900187298114328 -114
643900187305800474 -111
643900187313486620 -109
643900187321172766 -109
643900187328858912 -114
643900187336545058 -109
643900187344231204 -102
643900187351917350 -99
643900187359603496 -102
643900187367309759 -109
643900187374995626 -121
643900187382681493 -128
643900187390367360 -116
643900187398053227 -102
643900187405739094 -87
643900187413424961 -63
643900187421110828 -46
643900187428796695 -55
643900187436482562 -77
643900187444168429 -87
643900187451854296 -85
643900187459540163 -82
643900187467226030 -87
643900187474911897 -126
643900187482597764 -177
643900187490283631 -60
643900187497969498 361
643900187505655365 986
643900187513341232 1493
643900187521027099 1331
643900187528712966 415
643900187536398833 -303
643900187544084700 -310
643900187551770567 -221
643900187559456434 -303
643900187567142301 -303
643900187574828168 -247
643900187582514035 -262
643900187590199902 -264
643900187597885769 -230
643900187605571636 -221
643900187613257503 -213
643900187620943370 -191
643900187628629237 -172
643900187636315104 -162
643900187644000971 -145
643900187651686838 -121
643900187659372705 -97
643900187667058572 -72
643900187674744439 -43
643900187682430306 -12
643900187690116173 24
643900187697802040 60
643900187705487907 94
643900187713173774 114
643900187720859641 116
643900187728545508 106
643900187736231375 77
643900187743917242 29
643900187751603109 -29
643900187759288976 -85
643900187766974843 -131
643900187774660710 -167
643900187782346577 -187
643900187790032444 -199
643900187797718311 -199
643900187805404178 -194
643900187813090045 -191
643900187820775912 -194
643900187828461779 -189
643900187836147646 -179
643900187843833513 -172
643900187851519380 -162
643900187859205247 -155
643900187866891114 -150
643900187874576981 -145
643900187882262848 -138
643900187889948715 -133
643900187897634582 -123
643900187905320449 -119
643900187913006316 -116
643900187920692183 -114
643900187928378102 -109
643900187936063969 -104
643900187943749836 -102
643900187951435703 -97
643900187959121570 -97
643900187966807437 -97
643900187974493304 -97
643900187982179171 -102
643900187989865038 -99
643900187997550905 -94
643900188005236772 -94
643900188012922639 -99
643900188020608506 -104
643900188028294373 -109
643900188035980240 -111
643900188043666107 -109
643900188051351974 -106
643900188059037841 -104
643900188066723708 -109
643900188074409575 -116
643900188082095442 -121
643900188089781309 -123
643900188097467176 -126
643900188105153043 -128
643900188112838910 -126
643900188120524777 -121
643900188128210644 -119
643900188135896511 -114
643900188143582378 -114
643900188151268245 -121
643900188158954112 -128
643900188166639979 -119
643900188174325846 -114
643900188182011713 -109
643900188189697580 -89
643900188197383447 -60
643900188205069314 -53
643900188212755181 -70
643900188220441048 -87
643900188228126915 -89
643900188235812782 -89
643900188243498649 -87
643900188251184516 -114
643900188258870383 -172
643900188266556250 -131
643900188274242117 184
643900188281927984 753
643900188289613851 1338
643900188297299718 1455
643900188304985585 738
643900188312671452 -140
643900188320357319 -354
643900188328043186 -228
643900188335729053 -276
643900188343414920 -320
643900188351100787 -257
643900188358786654 -242
643900188366472521 -259
643900188374158388 -228
643900188381844255 -206
643900188389530122 -211
643900188397215989 -196
643900188404901856 -170
643900188412587723 -155
643900188420273590 -145
643900188427959457 -131
643900188435645324 -109
643900188443331191 -80
643900188451017058 -53
643900188458702925 -19
643900188466388792 17
643900188474074659 51
643900188481760526 82
643900188489416349 104
643900188497102634 116
643900188504788919 116
643900188512475204 97
643900188520161489 58
643900188527847774 0
643900188535534059 -60
643900188543220344 -109
643900188550906629 -143
643900188558592914 -170
643900188566279199 -184
643900188573965484 -196
643900188581651769 -201
643900188589338054 -196
643900188597024339 -191
643900188604710624 -189
643900188612396909 -187
643900188620083194 -182
643900188627769479 -172
643900188635455764 -165
643900188643142049 -160
643900188650828334 -150
643900188658514619 -143
643900188666200904 -138
643900188673887189 -133
643900188681573474 -126
643900188689259759 -121
643900188696946044 -111
643900188704632329 -106
643900188712318614 -104
643900188720004899 -109
643900188727691184 -116
643900188735377469 -114
643900188743063754 -109
643900188750750039 -109
643900188758436324 -109
643900188766122609 -106
643900188773808894 -109
643900188781495179 -111
643900188789181464 -111
643900188796867749 -106
643900188804554034 -104
643900188812240319 -102
643900188819926604 -99
643900188827612889 -99
643900188835299174 -102
643900188842985459 -94
643900188850671744 -89
643900188858358029 -85
643900188866044314 -80
643900188873730599 -77
643900188881416884 -80
643900188889103169 -82
643900188896789454 -80
643900188904475739 -77
643900188912162024 -75
643900188919848309 -75
643900188927534594 -77
643900188935220879 -82
643900188942907164 -89
643900188950593449 -94
643900188958279734 -92
643900188965966019 -94
643900188973652304 -92
643900188981338589 -77
643900188989024874 -63
643900188996711159 -53
643900189004397444 -58
643900189012083729 -75
643900189019770014 -85
643900189027456299 -82
643900189035142584 -80
643900189042828869 -87
643900189050570366 -133
643900189058255885 -167
643900189065941404 -4
643900189073626923 444
643900189081312442 1000
643900189088997961 1343
643900189096683480 1051
643900189104368999 196
643900189112054518 -354
643900189119740037 -306
643900189127425556 -242
643900189135111075 -318
643900189142796594 -296
643900189150482113 -250
643900189158167632 -262
643900189165853151 -255
643900189173538670 -225
643900189181224189 -216
643900189188909708 -201
643900189196595227 -179
643900189204280746 -162
643900189211966265 -150
643900189219651784 -136
643900189227337303 -116
643900189235022822 -89
643900189242708341 -63
643900189250393860 -31
643900189258079379 9
643900189265764898 51
643900189273450417 85
643900189281135936 109
643900189288821455 128
643900189296506974 138
643900189304192493 126
643900189311878012 92
643900189319563531 46
643900189327249050 -12
643900189334934569 -68
643900189342620088 -116
643900189350305607 -150
643900189357991126 -174
643900189365676645 -187
643900189373362164 -187
643900189381047683 -187
643900189388733202 -182
643900189396418721 -179
643900189404104240 -177
643900189411789759 -170
643900189419475278 -160
643900189427160797 -155
643900189434846316 -148
643900189442531835 -143
643900189450217354 -136
643900189457902873 -128
643900189465588392 -123
643900189473273911 -123
643900189480959430 -121
643900189488644949 -114
643900189496330468 -106
643900189504015987 -104
643900189511701506 -99
643900189519387025 -97
643900189527072544 -102
643900189534758063 -109
643900189542443582 -106
643900189550129101 -102
643900189557814620 -99
643900189565500139 -97
643900189573185658 -99
643900189580871177 -102
643900189588556696 -97
643900189596242215 -94
643900189603927734 -102
643900189611593190 -109
643900189619278988 -104
643900189626964786 -102
643900189634650584 -102
643900189642336382 -99
643900189650022180 -94
643900189657707978 -89
643900189665393776 -85
643900189673079574 -85
643900189680765372 -87
643900189688451170 -85
643900189696136968 -80
643900189703822766 -80
643900189711508564 -80
643900189719194362 -82
643900189726880160 -97
643900189734565958 -106
643900189742251756 -94
643900189749937554 -85
643900189757623352 -77
643900189765309150 -55
643900189772994948 -29
643900189780680746 -29
643900189788366544 -48
643900189796052342 -60
643900189803738140 -63
643900189811423938 -65
643900189819109736 -70
643900189826795534 -104
643900189834481332 -162
643900189842167130 -102
643900189849852928 255
643900189857538726 855
643900189865224524 1430
643900189872910322 1447
643900189880596120 624
643900189888281918 -230
643900189895967716 -364
643900189903653514 -240
643900189911339312 -301
643900189919025110 -335
643900189926710908 -274
643900189934396706 -272
643900189942082504 -279
643900189949768302 -252
643900189957454100 -240
643900189965139898 -230
643900189972825696 -211
643900189980511494 -194
643900189988197292 -177
643900189995883090 -153
643900190003568888 -131
643900190011254686 -116
643900190018940484 -92
643900190026626282 -60
643900190034312080 -26
643900190041997878 9
643900190049683676 46
643900190057369474 77
643900190065055272 97
643900190072741070 106
643900190080426868 104
643900190088112666 87
643900190095798464 51
643900190103484262 -4
643900190111170060 -68
643900190118855858 -121
643900190126541656 -157
643900190134227454 -179
643900190141913252 -194
643900190149599050 -199
643900190157284848 -199
643900190164970646 -196
643900190172636430 -189
643900190180322506 -182
643900190188008582 -179
643900190195694658 -174
643900190203380734 -170
643900190211066810 -162
643900190218752886 -155
643900190226438962 -155
643900190234125038 -160
643900190241811114 -153
643900190249497190 -138
643900190257183266 -131
643900190264869342 -126
643900190272555418 -123
643900190280241494 -123
643900190287927570 -119
643900190295613646 -109
643900190303299722 -104
643900190310985798 -104
643900190318671874 -102
643900190326357950 -104
643900190334044026 -104
643900190341730102 -99
643900190349416178 -99
643900190357102254 -99
643900190364788330 -97
643900190372474406 -97
643900190380160482 -99
643900190387846558 -97
643900190395532634 -97
643900190403218710 -97
643900190410904786 -94
643900190418590862 -94
643900190426276938 -94
643900190433963014 -92
643900190441649090 -89
643900190449335166 -92
643900190457021242 -92
643900190464707318 -87
643900190472393394 -85
643900190480079470 -87
643900190487765546 -87
643900190495451622 -82
643900190503137698 -85
643900190510823774 -92
643900190518509850 -99
643900190526195926 -97
643900190533882002 -89
643900190541568078 -85
643900190549254154 -72
643900190556940230 -53
643900190564626306 -36
643900190572312382 -38
643900190579998458 -65
643900190587684534 -80
643900190595370610 -75
643900190603056686 -77
643900190610742762 -87
643900190618428838 -133
643900190626114914 -184
643900190633800990 -65
643900190641487066 357
643900190649173142 964
643900190656859218 1447
643900190664545294 1265
643900190672231370 354
643900190679917446 -330
643900190687603522 -330
643900190695289598 -250
643900190702975674 -332
643900190710661750 -323
643900190718347826 -274
643900190726033902 -289
643900190733720034 -286
643900190741406110 -250
643900190749092186 -235
643900190756778262 -225
643900190764464338 -204
643900190772150414 -187
643900190779836490 -174
643900190787522566 -153
643900190795208642 -131
643900190802894718 -106
643900190810580794 -82
643900190818266870 -55
643900190825952946 -24
643900190833639022 7
643900190841325098 41
643900190849011174 72
643900190856697250 92
643900190864383326 99
643900190872069402 92
643900190879755478 70
643900190887441554 26
643900190895127630 -31
643900190902813706 -85
643900190910499782 -128
643900190918185858 -160
643900190925871934 -189
643900190933558010 -211
643900190941244086 -213
643900190948930162 -208
643900190956616238 -206
643900190964302314 -206
643900190971988390 -196
643900190979674466 -187
643900190987360542 -179
643900190995046618 -174
643900191002732694 -167
643900191010418770 -157
643900191018104846 -150
643900191025790922 -145
643900191033476998 -136
643900191041163074 -123
643900191048849150 -119
643900191056535226 -119
643900191064221302 -116
643900191071907378 -109
643900191079593454 -104
643900191087279530 -104
643900191094965606 -104
643900191102651682 -102
643900191110337758 -102
643900191118023834 -104
643900191125709910 -109
643900191133395986 -109
643900191141082062 -104
643900191148768138 -106
643900191156454214 -106
643900191164140290 -104
643900191171826366 -102
643900191179512442 -104
643900191187198518 -106
643900191194884594 -104
643900191202570670 -102
643900191210256746 -99
643900191217942822 -99
643900191225628898 -99
643900191233314974 -102
643900191241001050 -97
643900191248687126 -94
643900191256373202 -87
643900191264059278 -82
643900191271745354 -87
643900191279431430 -97
643900191287117506 -97
643900191294818682 -97
643900191302504549 -102
643900191310190416 -99
643900191317876283 -89
643900191325562150 -82
643900191333248017 -70
643900191340933884 -51
643900191348619751 -36
643900191356305618 -34
643900191363991485 -48
643900191371677352 -70
643900191379363219 -77
643900191387049086 -75
643900191394734953 -75
643900191402420820 -111
643900191410106687 -150
643900191417792554 -14
643900191425478421 408
643900191433164288 959
643900191440850155 1314
643900191448536022 1068
643900191456221889 250
643900191463907756 -332
643900191471593623 -308
643900191479279490 -216
643900191486965357 -276
643900191494651224 -272
643900191502337091 -221
643900191510022958 -225
643900191517708825 -228
643900191525394692 -199
643900191533080559 -184
643900191540766426 -177
643900191548452293 -160
643900191556138160 -143
643900191563824027 -131
643900191571509894 -116
643900191579195761 -89
643900191586881628 -65
643900191594567495 -46
643900191602253362 -17
643900191609939229 21
643900191617625096 55
643900191625310963 94
643900191632996830 138
643900191640682697 160
643900191648368564 150
643900191656054431 133
643900191663740298 116
643900191671426165 75
643900191679112032 4
643900191686797899 -65
643900191694483766 -119
643900191702169633 -162
643900191709855500 -187
643900191717541367 -194
643900191725227234 -206
643900191732913101 -211
643900191740598968 -201
643900191748284835 -199
643900191755970702 -187
643900191763656569 -170
643900191771342436 -182
643900191779028303 -191
643900191786714170 -172
643900191794400037 -153
643900191802085904 -143
643900191809771771 -128
643900191817457638 -119
643900191825143505 -121
643900191832829372 -119
643900191840515239 -111
643900191848201106 -106
643900191855887025 -102
643900191863572892 -99
643900191871258759 -102
643900191878944626 -104
643900191886630493 -102
643900191894316360 -102
643900191902002227 -102
643900191909688094 -102
643900191917373961 -104
643900191925059828 -114
643900191932745695 -121
643900191940431562 -121
643900191948117429 -119
643900191955803296 -114
643900191963489163 -111
643900191971175030 -109
643900191978860897 -109
643900191986546764 -111
643900191994232631 -109
643900192001918498 -99
643900192009604365 -99
643900192017290232 -106
643900192024976099 -109
643900192032661966 -109
643900192040347833 -111
643900192048033700 -94
643900192055719567 -60
643900192063405434 -38
643900192071091301 -41
643900192078777168 -55
643900192086463035 -60
643900192094148902 -55
643900192101834769 -51
643900192109520636 -53
643900192117206503 -97
643900192124892370 -148
643900192132578237 -12
643900192140264104 434
643900192147949971 1025
643900192155635838 1438
643900192163321705 1214
643900192171007572 298
643900192178693439 -361
643900192186379306 -303
643900192194065173 -196
643900192201751040 -286
643900192209436907 -281
643900192217122774 -230
643900192224808641 -247
643900192232494508 -247
643900192240180375 -216
643900192247866242 -199
643900192255552109 -191
643900192263237976 -177
643900192270923843 -160
643900192278609710 -145
643900192286295577 -126
643900192293981444 -104
643900192301667311 -80
643900192309353178 -53
643900192317039045 -24
643900192324724912 12
643900192332410779 55
643900192340096646 102
643900192347782513 136
643900192355468380 148
643900192363154247 150
643900192370840114 138
643900192378525981 99
643900192386211848 34
643900192393897715 -41
643900192401583582 -109
643900192409269449 -162
643900192416955368 -199
643900192424641235 -223
643900192432327102 -230
643900192440012969 -230
643900192447698836 -228
643900192455384703 -221
643900192463070570 -211
643900192470756437 -211
643900192478442304 -216
643900192486128171 -213
643900192493814038 -201
643900192501499905 -189
643900192509185772 -182
643900192516871639 -172
643900192524557506 -162
643900192532243373 -150
643900192539929240 -140
643900192547615107 -133
643900192555300974 -119
643900192562986841 -109
643900192570672708 -111
643900192578358575 -111
643900192586044442 -106
643900192593730309 -102
643900192601416176 -104
643900192609102043 -104
643900192616787910 -104
643900192624473777 -104
643900192632159644 -106
643900192639845511 -106
643900192647531378 -109
643900192655217245 -111
643900192662903112 -114
643900192670588979 -114
643900192678274846 -116
643900192685960713 -114
643900192693646580 -111
643900192701332447 -106
643900192709018314 -102
643900192716704181 -102
643900192724390048 -99
643900192732075915 -99
643900192739761782 -109
643900192747447649 -119
643900192755133516 -119
643900192762819383 -114
643900192770505250 -106
643900192778191117 -82
643900192785876984 -46
643900192793562851 -34
643900192801248718 -51
643900192808934585 -70
643900192816620452 -70
643900192824306319 -65
643900192831992186 -65
643900192839678053 -89
643900192847363920 -153
643900192855049787 -138
643900192862735654 160
643900192870421521 774
643900192878107388 1501
643900192885793255 1758
643900192893479122 1010
643900192901164989 -68
643900192908850856 -398
643900192916536723 -242
643900192924222590 -272
643900192931908457 -344
643900192939594324 -284
643900192947280191 -262
643900192954966058 -279
643900192962651925 -255
643900192970337792 -235
643900192978023715 -233
643900192985709582 -216
643900192993395449 -196
643900193001081316 -184
643900193008767183 -172
643900193016453050 -150
643900193024138917 -140
643900193031824784 -128
643900193039510651 -99
643900193047196518 -68
643900193054882385 -31
643900193062568252 12
643900193070254119 46
643900193077939986 68
643900193085625853 80
643900193093311720 82
643900193100997587 65
643900193108683454 26
643900193116369321 -29
643900193124055188 -87
643900193131741055 -138
643900193139426922 -179
643900193147112789 -206
643900193154798656 -225
643900193162484523 -235
643900193170170390 -233
643900193177856257 -225
643900193185542124 -225
643900193193227991 -218
643900193200913858 -206
643900193208599725 -196
643900193216285592 -191
643900193223971459 -189
643900193231657326 -184
643900193239343193 -174
643900193247029060 -165
643900193254714927 -155
643900193262400794 -148
643900193270086661 -143
643900193277772528 -133
643900193285458395 -123
643900193293144262 -116
643900193300830129 -114
643900193308515996 -106
643900193316201863 -99
643900193323887730 -94
643900193331573597 -94
643900193339259464 -97
643900193346945331 -92
643900193354631198 -89
643900193362317065 -94
643900193370002932 -99
643900193377688799 -102
643900193385374666 -102
643900193393060533 -99
643900193400746400 -102
643900193408432267 -102
643900193416118134 -99
643900193423804001 -97
643900193431489868 -94
643900193439175735 -92
643900193446861602 -89
643900193454547469 -89
643900193462233336 -94
643900193469919203 -102
643900193477605070 -99
643900193485290937 -94
643900193492976804 -82
643900193500662671 -58
643900193508348538 -34
643900193516034405 -26
643900193523720272 -41
643900193531406139 -55
643900193539092058 -58
643900193546777925 -55
643900193554463792 -55
643900193562149659 -77
643900193569835526 -140
643900193577521393 -126
643900193585207260 165
643900193592893127 753
643900193600578994 1425
643900193608264861 1666
643900193615950728 978
643900193623636595 -36
643900193631322462 -378
643900193639008329 -242
643900193646694196 -262
643900193654380063 -340
643900193662065930 -289
643900193669751797 -264
643900193677437664 -279
643900193685123531 -257
643900193692809398 -233
643900193700495265 -225
643900193708181132 -211
643900193715866999 -191
643900193723552866 -184
643900193731238733 -172
643900193738924600 -148
643900193746610467 -126
643900193754296334 -104
643900193761982201 -75
643900193769668068 -43
643900193777353935 -12
643900193785039802 19
643900193792725669 53
643900193800411536 77
643900193808097403 85
643900193815783270 85
643900193823469137 70
643900193831155004 31
643900193838840871 -24
643900193846526738 -82
643900193854212605 -131
643900193861898472 -167
643900193869584339 -191
643900193877270206 -208
643900193884956073 -216
643900193892641940 -218
643900193900327807 -216
643900193908013674 -213
643900193915699541 -211
643900193923385408 -211
643900193931071275 -206
643900193938757142 -196
643900193946443009 -187
643900193954128876 -182
643900193961814743 -177
643900193969500610 -172
643900193977186477 -162
643900193984872344 -153
643900193992558211 -145
643900194000244078 -138
643900194007929945 -128
643900194015615812 -121
643900194023301679 -123
643900194030987546 -119
643900194038673413 -109
643900194046359280 -102
643900194054045147 -99
643900194061731014 -97
643900194069416881 -104
643900194077102748 -109
643900194084788615 -109
643900194092474482 -106
643900194100160401 -102
643900194107846268 -99
643900194115532135 -94
643900194123218002 -92
643900194130903869 -92
643900194138589736 -94
643900194146275603 -94
643900194153961470 -97
643900194161647337 -104
643900194169333204 -102
643900194177019071 -102
643900194184704938 -104
643900194192390805 -106
643900194200076672 -111
643900194207762539 -114
643900194215448406 -109
643900194223134273 -106
643900194230820140 -92
643900194238506007 -60
643900194246191874 -36
643900194253877741 -34
643900194261563608 -51
643900194269249475 -63
643900194276935342 -60
643900194284621209 -58
643900194292307076 -63
643900194299992943 -94
643900194307678810 -153
643900194315364677 -89
643900194323050544 272
643900194330736411 886
643900194338422278 1496
643900194346108145 1542
643900194353794012 711
643900194361479879 -179
643900194369165746 -335
643900194376851613 -204
643900194384537480 -264
643900194392223347 -308
643900194399909214 -245
643900194407595081 -235
643900194415280948 -247
643900194422966815 -225
643900194430652682 -211
643900194438338549 -204
643900194446024416 -182
643900194453710283 -162
643900194461396150 -150
643900194469082017 -131
643900194476767884 -109
643900194484453751 -89
643900194492139618 -65
643900194499825485 -34
643900194507511352 -2
643900194515197219 31
643900194522883086 70
643900194530568953 97
643900194538254820 109
643900194545940687 119
643900194553626554 119
643900194561312421 99
643900194568998288 53
643900194576684155 -7
643900194584370022 -70
643900194592055889 -121
643900194599741756 -155
643900194607427623 -174
643900194615113490 -189
643900194622799357 -201
643900194630485224 -204
643900194638171091 -201
643900194645856958 -196
643900194653542825 -189
643900194661228744 -187
643900194668914611 -189
643900194676600478 -187
643900194684286345 -174
643900194691972212 -167
643900194699658079 -165
643900194707343946 -155
643900194715029813 -148
643900194722715680 -145
643900194730401547 -148
643900194738087414 -140
643900194745773281 -131
643900194753459148 -126
643900194761145015 -123
643900194768830882 -121
643900194776516749 -123
643900194784202616 -126
643900194791888483 -121
643900194799574350 -116
643900194807260217 -116
643900194814946084 -111
643900194822631951 -109
643900194830317818 -111
643900194838003685 -109
643900194845689552 -104
643900194853375419 -102
643900194861061286 -97
643900194868747153 -97
643900194876433020 -97
643900194884118887 -94
643900194891804754 -94
643900194899490621 -97
643900194907176488 -97
643900194914862355 -92
643900194922548222 -85
643900194930234089 -70
643900194937919956 -46
643900194945605823 -31
643900194953291690 -38
643900194960977557 -53
643900194968663424 -58
643900194976349291 -58
643900194984035158 -55
643900194991721025 -58
643900194999406892 -106
643900195007092759 -155
643900195014778626 -19
643900195022464493 432
643900195030150360 1061
643900195037836227 1523
643900195045522094 1275
643900195053207961 335
643900195060893828 -315
643900195068579695 -279
643900195076265562 -199
643900195083951429 -284
643900195091637296 -272
643900195099323163 -216
643900195107009030 -225
643900195114694897 -225
643900195122380764 -199
643900195130066631 -189
643900195137752498 -182
643900195145438365 -162
643900195153124232 -145
643900195160810099 -133
643900195168495966 -121
643900195176181833 -102
643900195183867700 -82
643900195191553567 -58
643900195199239434 -29
643900195206925301 4
643900195214611168 46
643900195222297087 85
643900195229982954 111
643900195237668821 121
643900195245354688 119
643900195253040555 114
643900195260726422 94
643900195268412289 38
643900195276098156 -31
643900195283784023 -89
643900195291469890 -131
643900195299155757 -162
643900195306841624 -184
643900195314527491 -189
643900195322213358 -194
643900195329899225 -196
643900195337585092 -189
643900195345270959 -182
643900195352956826 -182
643900195360642693 -177
643900195368328560 -179
643900195376014427 -182
643900195383700294 -172
643900195391386161 -162
643900195399072028 -162
643900195406757895 -157
643900195414443762 -145
643900195422129629 -138
643900195429815496 -138
643900195437501363 -136
643900195445187230 -131
643900195452873097 -126
643900195460558964 -121
643900195468244831 -116
643900195475930698 -119
643900195483616565 -126
643900195491302432 -123
643900195498988299 -116
643900195506674166 -114
643900195514360033 -114
643900195522045900 -114
643900195529731767 -109
643900195537417634 -109
643900195545103501 -106
643900195552789368 -104
643900195560475235 -106
643900195568161102 -109
643900195575846969 -106
643900195583532836 -102
643900195591218703 -97
643900195598904570 -82
643900195606590437 -58
643900195614276304 -48
643900195621962171 -60
643900195629648038 -80
643900195637333905 -82
643900195645019772 -72
643900195652705639 -65
643900195660391506 -65
643900195668077373 -102
643900195675763240 -157
643900195683449107 -55
643900195691134974 357
643900195698820841 927
643900195706506708 1323
643900195714192575 1151
643900195721878442 364
643900195729564309 -286
643900195737250176 -315
643900195744936043 -194
643900195752621910 -240
643900195760307777 -250
643900195767993644 -206
643900195775679511 -208
643900195783365430 -204
643900195791051297 -174
643900195798737164 -160
643900195806423031 -153
643900195814108898 -140
643900195821794765 -126
643900195829480632 -111
643900195837166499 -97
643900195844852366 -77
643900195852538233 -53
643900195860224100 -26
643900195867909967 2
643900195875595834 31
643900195883281701 65
643900195890967568 106
643900195898653435 138
643900195906339302 150
643900195914025169 145
643900195921711036 131
643900195929396903 102
643900195937082770 46
643900195944768637 -19
643900195952454504 -77
643900195960140371 -126
643900195967826238 -160
643900195975512105 -182
643900195983197972 -191
643900195990883839 -194
643900195998569706 -191
643900196006255573 -184
643900196013941440 -179
643900196021627307 -177
643900196029313174 -172
643900196036999041 -165
643900196044684908 -160
643900196052370775 -153
643900196060056642 -143
643900196067742509 -138
643900196075428376 -136
643900196083114243 -133
643900196090800110 -126
643900196098485977 -123
643900196106171844 -126
643900196113857711 -126
643900196121543578 -128
643900196129229445 -126
643900196136915312 -126
643900196144601179 -128
643900196152287046 -131
643900196159972913 -128
643900196167658780 -123
643900196175344647 -128
643900196183030514 -138
643900196190716381 -138
643900196198402248 -131
643900196206088115 -126
643900196213773982 -126
643900196221459849 -121
643900196229145716 -123
643900196236831583 -126
643900196244517450 -123
643900196252203317 -126
643900196259889184 -131
643900196267575051 -126
643900196275260918 -121
643900196282946785 -116
643900196290632652 -99
643900196298318519 -70
643900196306004386 -51
643900196313690253 -63
643900196321376120 -82
643900196329061987 -82
643900196336747854 -80
643900196344433777 -77
643900196352119644 -85
643900196359805511 -140
643900196367491378 -184
643900196375177245 -4
643900196382863112 495
643900196390548979 1149
643900196398234846 1557
643900196405920713 1161
643900196413606580 165
643900196421292447 -381
643900196428978314 -286
643900196436664181 -238
643900196444350048 -323
643900196452035915 -291
643900196459721782 -245
643900196467407649 -262
643900196475093516 -252
643900196482779383 -221
643900196490465250 -211
643900196498151117 -204
643900196505836984 -184
643900196513522851 -165
643900196521208718 -148
643900196528894585 -133
643900196536580452 -111
643900196544266319 -85
643900196551952186 -58
643900196559638053 -29
643900196567323920 4
643900196575009787 41
643900196582695654 70
643900196590381521 89
643900196598067388 102
643900196605753255 99
643900196613439122 87
643900196621124989 53
643900196628810856 4
643900196636496723 -51
643900196644182590 -102
643900196651868457 -140
643900196659554324 -162
643900196667240191 -177
643900196674926058 -187
643900196682611925 -191
643900196690297792 -194
643900196697983659 -194
643900196705669526 -184
643900196713355393 -174
643900196721041260 -170
643900196728727127 -160
643900196736412994 -153
643900196744098861 -150
643900196751784728 -145
643900196759470595 -140
643900196767156462 -138
643900196774842329 -131
643900196782528196 -123
643900196790214063 -121
643900196797899930 -119
643900196805585797 -114
643900196813271664 -109
643900196820957531 -111
643900196828643398 -119
643900196836329265 -116
643900196844015132 -116
643900196851700999 -121
643900196859386866 -119
643900196867072733 -116
643900196874758600 -123
643900196882444467 -126
643900196890130334 -119
643900196897816201 -114
643900196905502120 -119
643900196913187987 -119
643900196920873854 -114
643900196928559721 -119
643900196936245588 -119
643900196943931455 -109
643900196951617322 -114
643900196959303189 -123
643900196966989056 -119
643900196974674923 -114
643900196982360790 -116
643900196990046657 -94
643900196997732524 -60
643900197005418391 -46
643900197013104258 -58
643900197020790125 -75
643900197028475992 -80
643900197036161859 -77
643900197043847726 -72
643900197051533593 -75
643900197059219460 -116
643900197066905327 -172
643900197074591194 -65
643900197082277061 354
643900197089962928 983
643900197097648795 1501
643900197105334662 1340
643900197113020529 420
643900197120706396 -298
643900197128392263 -313
643900197136078130 -216
643900197143763997 -291
643900197151449864 -293
643900197159135731 -240
643900197166821598 -245
643900197174507465 -245
643900197182193332 -218
643900197189879199 -213
643900197197565066 -208
643900197205250933 -187
643900197212936800 -162
643900197220622667 -150
643900197228308534 -138
643900197235994401 -116
643900197243680268 -85
643900197251366135 -58
643900197259052002 -26
643900197266737869 7
643900197274423736 36
643900197282109603 65
643900197289795470 94
643900197297481337 111
643900197305167204 109
643900197312853071 97
643900197320538938 80
643900197328224805 36
643900197335910672 -21
643900197343596539 -80
643900197351282406 -121
643900197358968273 -145
643900197366654140 -165
643900197374340007 -182
643900197382025874 -184
643900197389711741 -174
643900197397397608 -167
643900197405083475 -162
643900197412769342 -157
643900197420455209 -148
643900197428141076 -143
643900197435826943 -143
643900197443512810 -133
643900197451198677 -119
643900197458884544 -111
643900197466570463 -111
643900197474256330 -111
643900197481942197 -111
643900197489628064 -106
643900197497313931 -99
643900197504999798 -94
643900197512685665 -94
643900197520371532 -97
643900197528057399 -104
643900197535743266 -104
643900197543429133 -102
643900197551115000 -106
643900197558800867 -109
643900197566486734 -104
643900197574172601 -106
643900197581858468 -116
643900197589544335 -119
643900197597230202 -114
643900197604916069 -114
643900197612601936 -114
643900197620287803 -111
643900197627973670 -114
643900197635659537 -111
643900197643345404 -106
643900197651031271 -106
643900197658717138 -106
643900197666403005 -102
643900197674088872 -104
643900197681774739 -111
643900197689460606 -109
643900197697146473 -104
643900197704832340 -104
643900197712518207 -85
643900197720204074 -58
643900197727889941 -51
643900197735575808 -60
643900197743261675 -75
643900197750947542 -77
643900197758633409 -72
643900197766319276 -70
643900197774005143 -85
643900197781691010 -140
643900197789376877 -165
643900197797062744 41
643900197804748611 541
643900197812434478 1158
643900197820120345 1496
643900197827806212 1056
643900197835492079 106
643900197843177946 -364
643900197850863813 -255
643900197858549680 -216
643900197866235547 -293
643900197873921414 -262
643900197881607281 -225
643900197889293148 -242
643900197896979015 -228
643900197904664882 -199
643900197912350749 -189
643900197920036616 -182
643900197927722483 -165
643900197935408350 -148
643900197943094217 -133
643900197950780084 -111
643900197958465951 -92
643900197966151818 -68
643900197973837685 -43
643900197981523552 -19
643900197989209419 17
643900197996895286 60
643900198004581153 92
643900198012267020 114
643900198019952887 123
643900198027638806 116
643900198035324673 102
643900198043010540 80
643900198050696407 34
643900198058382274 -29
643900198066068141 -77
643900198073754008 -114
643900198081439875 -145
643900198089125742 -165
643900198096811609 -172
643900198104497476 -174
643900198112183343 -170
643900198119869210 -165
643900198127555077 -174
643900198135240944 -179
643900198142926811 -162
643900198150612678 -145
643900198158298545 -140
643900198165984412 -138
643900198173670279 -133
643900198181356146 -121
643900198189042013 -111
643900198196727880 -114
643900198204413747 -116
643900198212099614 -116
643900198219785481 -116
643900198227471348 -116
643900198235157215 -109
643900198242843082 -106
643900198250528949 -111
643900198258214816 -111
643900198265900683 -111
643900198273586550 -114
643900198281272417 -116
643900198288958284 -119
643900198296644151 -123
643900198304330018 -123
643900198312015885 -116
643900198319701752 -114
643900198327387619 -116
643900198335073486 -119
643900198342759353 -116
643900198350445220 -114
643900198358131087 -106
643900198365816954 -106
643900198373502821 -106
643900198381188688 -109
643900198388874555 -114
643900198396560422 -121
643900198404246289 -116
643900198411932156 -106
643900198419618023 -99
643900198427303890 -85
643900198434989757 -65
643900198442675624 -55
643900198450361491 -65
643900198458047358 -77
643900198465733225 -75
643900198473419092 -75
643900198481104959 -72
643900198488790826 -85
643900198496476693 -133
643900198504162560 -150
643900198511848427 68
643900198519534294 568
643900198527220161 1124
643900198534906028 1355
643900198542591895 896
643900198550277762 36
643900198557963629 -361
643900198565649496 -242
643900198573335363 -204
643900198581021230 -276
643900198588707149 -245
643900198596393016 -211
643900198604078883 -223
643900198611764750 -204
643900198619450617 -182
643900198627136484 -187
643900198634822351 -182
643900198642508218 -155
643900198650194085 -136
643900198657879952 -121
643900198665565819 -102
643900198673251686 -82
643900198680937553 -65
643900198688623420 -34
643900198696309287 4
643900198703995154 34
643900198711681021 60
643900198719366888 94
643900198727052755 121
643900198734738622 128
643900198742424489 119
643900198750110356 102
643900198757796223 75
643900198765482090 24
643900198773167957 -41
643900198780853824 -99
643900198788539691 -133
643900198796225558 -155
643900198803911425 -172
643900198811597292 -182
643900198819283159 -182
643900198826969026 -182
643900198834654893 -177
643900198842340760 -170
643900198850026627 -165
643900198857712494 -157
643900198865398361 -150
643900198873084228 -140
643900198880770095 -133
643900198888455962 -123
643900198896141829 -114
643900198903827696 -109
643900198911513563 -104
643900198919199430 -104
643900198926885297 -99
643900198934571164 -94
643900198942257031 -89
643900198949942898 -92
643900198957628765 -99
643900198965314632 -99
643900198973000499 -97
643900198980686366 -102
643900198988372233 -106
643900198996058100 -106
643900199003743967 -104
643900199011429834 -102
643900199019115701 -104
643900199026801568 -106
643900199034487435 -109
643900199042173302 -111
643900199049859169 -106
643900199057545036 -99
643900199065230903 -102
643900199072916770 -104
643900199080602637 -104
643900199088288504 -99
643900199095974371 -97
643900199103660238 -92
643900199111346105 -94
643900199119031972 -104
643900199126717839 -109
643900199134403706 -104
643900199142089573 -94
643900199149775492 -85
643900199157461359 -58
643900199165147226 -29
643900199172833093 -31
643900199180518960 -53
643900199188204827 -65
643900199195890694 -58
643900199203576561 -58
643900199211262428 -65
643900199218948295 -94
643900199226634162 -165
643900199234320029 -143
643900199242005896 167
643900199249691763 738
643900199257377630 1355
643900199265063497 1525
643900199272749364 816
643900199280435231 -126
643900199288121098 -376
643900199295806965 -225
643900199303492832 -257
643900199311178699 -320
643900199318864566 -264
643900199326550433 -245
643900199334236300 -259
643900199341922167 -233
643900199349608034 -208
643900199357293901 -206
643900199364979768 -191
643900199372665635 -172
643900199380351502 -162
643900199388037369 -148
643900199395723236 -123
643900199403409103 -99
643900199411094970 -72
643900199418780837 -41
643900199426466704 -7
643900199434152571 24
643900199441838438 55
643900199449524305 85
643900199457210172 106
643900199464896039 114
643900199472581906 111
643900199480267773 94
643900199487953640 60
643900199495639507 9
643900199503325374 -46
643900199511011241 -97
643900199518697108 -136
643900199526382975 -155
643900199534068842 -162
643900199541754709 -170
643900199549440576 -177
643900199557126443 -174
643900199564812310 -167
643900199572498177 -157
643900199580184044 -155
643900199587869911 -155
643900199595555778 -153
643900199603241645 -140
643900199610927512 -133
643900199618613379 -133
643900199626299246 -133
643900199633985113 -126
643900199641670980 -119
643900199649356847 -119
643900199657042714 -123
643900199664728581 -119
643900199672414448 -111
643900199680100315 -109
643900199687786182 -106
643900199695472049 -104
643900199703157916 -104
643900199710873935 -106
643900199718559384 -111
643900199726244833 -126
643900199733930282 -131
643900199741615731 -121
643900199749301180 -119
643900199756986629 -121
643900199764672078 -119
643900199772357527 -119
643900199780042976 -123
643900199787728425 -123
643900199795413874 -114
643900199803099323 -111
643900199810784772 -114
643900199818470221 -111
643900199826155670 -111
643900199833841119 -106
643900199841526568 -97
643900199849212017 -97
643900199856897466 -104
643900199864582915 -109
643900199872268364 -109
643900199879953813 -99
643900199887639262 -87
643900199895324711 -72
643900199903010160 -48
643900199910695609 -31
643900199918381058 -36
643900199926066507 -58
643900199933751956 -70
643900199941437405 -65
643900199949122854 -60
643900199956808303 -63
643900199964493752 -92
643900199972179201 -150
643900199979864650 -106
643900199987550099 218
643900199995235548 789
643900200002920997 1365
643900200010606446 1445
643900200018291895 689
643900200025977344 -160
643900200033662793 -325
643900200041348242 -201
643900200049033691 -257
643900200056719140 -301
643900200064404589 -245
643900200072090038 -238
643900200079775487 -252
643900200087460936 -223
643900200095146385 -201
643900200102831834 -196
643900200110517283 -182
643900200118202732 -160
643900200125888181 -148
643900200133573630 -131
643900200141259079 -106
643900200148944528 -85
643900200156629977 -63
643900200164315426 -29
643900200172000875 7
643900200179686324 38
643900200187371773 70
643900200195057222 97
643900200202742671 111
643900200210428120 116
643900200218113569 106
643900200225799018 82
643900200233484467 46
643900200241169916 -2
643900200248855365 -58
643900200256540814 -104
643900200264226263 -131
643900200271881664 -153
643900200279567531 -167
643900200287253398 -174
643900200294939265 -177
643900200302625132 -179
643900200310310999 -172
643900200317996866 -167
643900200325682733 -172
643900200333368600 -172
643900200341054467 -162
643900200348740334 -150
643900200356426201 -143
643900200364112068 -138
643900200371797935 -136
643900200379483802 -140
643900200387169669 -140
643900200394855536 -128
643900200402541403 -123
643900200410227270 -119
643900200417913137 -114
643900200425599004 -116
643900200433284871 -123
643900200440970738 -116
643900200448656605 -111
643900200456342472 -114
643900200464028339 -116
643900200471714206 -114
643900200479400073 -106
643900200487085940 -99
643900200494771807 -94
643900200502457674 -94
643900200510143541 -94
643900200517829408 -89
643900200525515275 -87
643900200533201142 -89
643900200540887009 -87
643900200548572876 -85
643900200556258743 -85
643900200563944610 -77
643900200571630477 -65
643900200579316344 -68
643900200587002211 -82
643900200594688078 -87
643900200602373945 -80
643900200610059812 -82
643900200617745679 -75
643900200625431546 -48
643900200633117413 -31
643900200640803280 -31
643900200648489147 -43
643900200656175014 -51
643900200663860881 -51
643900200671546748 -46
643900200679232615 -43
643900200686918482 -55
643900200694604349 -106
643900200702290216 -128
643900200709976083 75
643900200717661950 553
643900200725347817 1097
643900200733033684 1360
643900200740719551 961
643900200748405418 111
643900200756091285 -340
643900200763777152 -247
643900200771463019 -191
643900200779148886 -257
643900200786834753 -238
643900200794520620 -204
643900200802206487 -208
643900200809892354 -196
643900200817578221 -170
643900200825264088 -162
643900200832950007 -153
643900200840635874 -133
643900200848321741 -119
643900200856007608 -106
643900200863693475 -85
643900200871379342 -60
643900200879065209 -41
643900200886751076 -14
643900200894436943 24
643900200902122810 63
643900200909808677 102
643900200917494544 140
643900200925180411 162
643900200932866278 162
643900200940552145 160
643900200948238012 145
643900200955923879 104
643900200963609746 43
643900200971295613 -29
643900200978981480 -97
643900200986667347 -143
643900200994353214 -174
643900201002039081 -191
643900201009724948 -199
643900201017410815 -199
643900201025096682 -206
643900201032782549 -211
643900201040468416 -208
643900201048154283 -201
643900201055840150 -189
643900201063526017 -184
643900201071211884 -177
643900201078897751 -167
643900201086583618 -157
643900201094269485 -148
643900201101955352 -138
643900201109641219 -133
643900201117327086 -133
643900201125012953 -131
643900201132698820 -128
643900201140384687 -126
643900201148070554 -123
643900201155756421 -123
643900201163442288 -123
643900201171128155 -121
643900201178814022 -121
643900201186499889 -121
643900201194185756 -119
643900201201871623 -119
643900201209557490 -114
643900201217243357 -111
643900201224929224 -109
643900201232615091 -111
643900201240300958 -114
643900201247986825 -111
643900201255672692 -109
643900201263358559 -104
643900201271044426 -99
643900201278730293 -99
643900201286416160 -99
643900201294102027 -102
643900201301787894 -111
643900201309473761 -119
643900201317159628 -121
643900201324845495 -116
643900201332531362 -104
643900201340217229 -72
643900201347903096 -46
643900201355588963 -41
643900201363274830 -55
643900201370960697 -68
643900201378646564 -65
643900201386332431 -60
643900201394018350 -68
643900201401704217 -99
643900201409390084 -165
643900201417075951 -114
643900201424761818 257
643900201432447685 918
643900201440133552 1583
643900201447819419 1649
643900201455505286 745
643900201463191153 -223
643900201470877020 -376
643900201478562887 -233
643900201486248754 -308
643900201493934621 -342
643900201501620488 -269
643900201509306355 -267
643900201516992222 -276
643900201524678089 -245
643900201532363956 -233
643900201540049823 -225
643900201547735690 -201
643900201555421557 -182
643900201563107424 -170
643900201570793291 -150
643900201578479158 -128
643900201586165025 -104
643900201593850892 -80
643900201601536759 -53
643900201609222626 -19
643900201616908493 19
643900201624594360 58
643900201632280227 89
643900201639966094 109
643900201647651961 119
643900201655337828 111
643900201663023695 87
643900201670709562 46
643900201678395429 -14
643900201686081296 -75
643900201693767163 -119
643900201701453030 -153
643900201709138897 -174
643900201716824764 -187
643900201724510631 -191
643900201732196498 -196
643900201739882365 -201
643900201747568232 -199
643900201755254099 -194
643900201762939966 -194
643900201770625833 -191
643900201778311700 -187
643900201785997567 -184
643900201793683434 -179
643900201801369301 -172
643900201809055168 -162
643900201816741035 -155
643900201824426902 -153
643900201832112769 -150
643900201839798636 -143
643900201847484503 -136
643900201855170370 -136
643900201862856237 -128
643900201870542104 -123
643900201878227971 -123
643900201885913838 -123
643900201893599705 -119
643900201901285572 -119
643900201908971439 -116
643900201916657306 -114
643900201924343173 -114
643900201932029040 -114
