timestamp ecg
643708537596774873 4973
643708537604460740 4961
643708537612146607 4942
643708537619832474 4925
643708537627518341 4903
643708537635204208 4874
643708537642890075 4850
643708537650575942 4828
643708537658261809 4806
643708537665947676 4787
643708537673633543 4758
643708537681319410 4712
643708537689005277 4673
643708537696691144 4656
643708537704377011 4651
643708537712062878 4619
643708537719748745 4561
643708537727434612 4532
643708537735120479 4505
643708537742806346 4462
643708537750492213 4445
643708537758178080 4421
643708537765863947 4357
643708537773549814 4307
643708537781235681 4273
643708537788921548 4246
643708537796607415 4222
643708537804293282 4178
643708537811979149 4127
643708537819665016 4093
643708537827350883 4054
643708537835036750 3999
643708537842722617 3965
643708537850408484 3928
643708537858094351 3870
643708537865780218 3836
643708537873466085 3807
643708537881151952 3741
643708537888837819 3691
643708537896523686 3659
643708537904209553 3618
643708537911895420 3572
643708537919581287 3530
643708537927267154 3487
643708537934953021 3443
643708537942638888 3395
643708537950324755 3344
643708537958010622 3300
643708537965696489 3264
643708537973382356 3215
643708537981068223 3169
643708537988754090 3135
643708537996439957 3094
643708538004125824 3070
643708538011811691 3058
643708538019497558 3004
643708538027183425 2931
643708538034869292 2871
643708538042555159 2818
643708538050241026 2781
643708538057926893 2750
643708538065612760 2708
643708538073298627 2655
643708538080984494 2577
643708538088670361 2580
643708538096356228 2847
643708538104042095 3361
643708538111727962 3848
643708538119413829 3935
643708538127099696 3278
643708538134785563 2313
643708538142471430 1981
643708538150157297 2182
643708538157843216 2189
643708538165529083 2068
643708538173214950 2068
643708538180900817 2049
643708538188586684 1981
643708538196272551 1961
643708538203958418 1944
643708538211644285 1903
643708538219330152 1877
643708538227016019 1855
643708538234701886 1823
643708538242387753 1794
643708538250073620 1775
643708538257759487 1765
643708538265445354 1748
643708538273131221 1726
643708538280817088 1707
643708538288502955 1690
643708538296188822 1692
643708538303874689 1695
643708538311560556 1692
643708538319246423 1709
643708538326932290 1741
643708538334618157 1765
643708538342304024 1794
643708538349989891 1828
643708538357675758 1845
643708538365361625 1845
643708538373047492 1850
643708538380733359 1840
643708538388419226 1763
643708538396105093 1627
643708538403790960 1467
643708538411476827 1311
643708538419162694 1188
643708538426848561 1093
643708538434534428 1013
643708538442220295 955
643708538449906162 911
643708538457592029 875
643708538465277896 853
643708538472963763 851
643708538480649630 843
643708538488335497 822
643708538496021364 802
643708538503707231 788
643708538511393098 778
643708538519078965 768
643708538526764832 751
643708538534450699 734
643708538542136566 727
643708538549822433 720
643708538557508300 710
643708538565194167 698
643708538572880034 691
643708538580565901 679
643708538588251768 669
643708538595937635 662
643708538603623502 649
643708538611309369 632
643708538618995236 620
643708538626681103 611
643708538634366970 596
643708538642052837 584
643708538649738704 574
643708538657424571 562
643708538665110438 548
643708538672796305 538
643708538680482172 526
643708538688168039 514
643708538695853906 509
643708538703539773 497
643708538711225640 485
643708538718891471 477
643708538726577617 470
643708538734263763 455
643708538741949909 446
643708538749636055 446
643708538757322201 438
643708538765008347 429
643708538772694493 421
643708538780380639 412
643708538788066785 400
643708538795752931 392
643708538803439077 388
643708538811125223 378
643708538818811369 371
643708538826497515 363
643708538834183661 358
643708538841869807 351
643708538849555953 346
643708538857242099 341
643708538864928245 329
643708538872614391 315
643708538880300537 310
643708538887986683 310
643708538895672829 303
643708538903358975 298
643708538911045121 293
643708538918731267 288
643708538926417413 278
643708538934103559 274
643708538941789705 276
643708538949475851 274
643708538957161997 264
643708538964848143 257
643708538972534289 252
643708538980220435 242
643708538987906581 237
643708538995592727 230
643708539003278873 215
643708539010965019 208
643708539018651165 213
643708539026337311 213
643708539034023457 213
643708539041709603 225
643708539049395749 247
643708539057081895 244
643708539064768041 218
643708539072454187 191
643708539080140333 172
643708539087826479 174
643708539095512625 196
643708539103198771 191
643708539110884917 164
643708539118571063 140
643708539126257209 109
643708539133943355 215
643708539141629501 628
643708539149315647 1224
643708539157001793 1687
643708539164687939 1588
643708539172374085 729
643708539180060231 -97
643708539187746377 -138
643708539195432523 84
643708539203118669 29
643708539210804815 -26
643708539218490961 21
643708539226177107 9
643708539233863253 -14
643708539241549399 7
643708539249235545 14
643708539256921691 7
643708539264607837 16
643708539272293983 24
643708539279995210 21
643708539287681147 33
643708539295367084 48
643708539303053021 55
643708539310738958 65
643708539318424895 80
643708539326110832 92
643708539333796769 106
643708539341482706 130
643708539349168643 160
643708539356854580 194
643708539364540517 227
643708539372226454 266
643708539379912391 322
643708539387598328 383
643708539395284265 438
643708539402970202 485
643708539410656139 514
643708539418342076 526
643708539426028013 511
643708539433713950 453
643708539441399887 346
643708539449085824 213
643708539456771761 84
643708539464457698 -19
643708539472143635 -92
643708539479829572 -140
643708539487515509 -169
643708539495201446 -186
643708539502887383 -194
643708539510573320 -189
643708539518259257 -186
643708539525945194 -184
643708539533631131 -174
643708539541317068 -164
643708539549003005 -157
643708539556688942 -157
643708539564374879 -152
643708539572060816 -140
643708539579746753 -135
643708539587432690 -128
643708539595118627 -118
643708539602804564 -111
643708539610490501 -109
643708539618176438 -104
643708539625862375 -101
643708539633548312 -97
643708539641234249 -92
643708539648920186 -92
643708539656606123 -89
643708539664292060 -82
643708539671977997 -82
643708539679663934 -84
643708539687349871 -82
643708539695035808 -84
643708539702721745 -84
643708539710407682 -84
643708539718093619 -84
643708539725779556 -89
643708539733465493 -92
643708539741151430 -92
643708539748837367 -87
643708539756523304 -80
643708539764209241 -80
643708539771895178 -80
643708539779581115 -77
643708539787267052 -72
643708539794952989 -75
643708539802638926 -72
643708539810324863 -67
643708539818010800 -65
643708539825696737 -65
643708539833382674 -63
643708539841068640 -60
643708539848754577 -58
643708539856440514 -53
643708539864126451 -50
643708539871812388 -60
643708539879498325 -65
643708539887184262 -55
643708539894870199 -50
643708539902556136 -55
643708539910242073 -55
643708539917928010 -53
643708539925613947 -63
643708539933299884 -65
643708539940985821 -53
643708539948671758 -53
643708539956357695 -60
643708539964043632 -65
643708539971729569 -65
643708539979415506 -60
643708539987101443 -55
643708539994787380 -60
643708540002473317 -63
643708540010159254 -60
643708540017845191 -58
643708540025531128 -58
643708540033217065 -58
643708540040903002 -55
643708540048588939 -50
643708540056274876 -48
643708540063960813 -50
643708540071646750 -53
643708540079332687 -50
643708540087018624 -46
643708540094704561 -41
643708540102390498 -41
643708540110076435 -41
643708540117762372 -41
643708540125448309 -41
643708540133134246 -41
643708540140820183 -36
643708540148506120 -33
643708540156192057 -36
643708540163877994 -38
643708540171563931 -41
643708540179249868 -41
643708540186935805 -46
643708540194621742 -58
643708540202307679 -67
643708540209993616 -70
643708540217679553 -63
643708540225365490 -50
643708540233051427 -41
643708540240737364 -26
643708540248423301 -4
643708540256109238 -9
643708540263795175 -31
643708540271481112 -41
643708540279167049 -48
643708540286852986 -50
643708540294538923 -43
643708540302224860 -38
643708540309910797 -43
643708540317596734 -77
643708540325282671 -87
643708540332968608 111
643708540340654545 603
643708540348340482 1200
643708540356026419 1556
643708540363712356 1217
643708540371398293 247
643708540379084230 -358
643708540386770167 -218
643708540394456104 -75
643708540402142066 -172
643708540409828003 -179
643708540417513940 -130
643708540425199877 -155
643708540432885814 -160
643708540440571751 -133
643708540448257688 -130
643708540455943625 -133
643708540463629562 -113
643708540471315499 -104
643708540479001436 -106
643708540486687373 -97
643708540494373310 -77
643708540502059247 -60
643708540509745184 -46
643708540517431121 -31
643708540525117058 -12
643708540532802995 12
643708540540488932 36
643708540548174869 72
643708540555860806 111
643708540563546743 150
643708540571232680 196
643708540578918617 252
643708540586604554 312
643708540594290491 363
643708540601976428 407
643708540609662365 434
643708540617348302 443
643708540625034239 429
643708540632720176 371
643708540640406113 264
643708540648092050 135
643708540655777987 16
643708540663463924 -77
643708540671149861 -147
643708540678835798 -196
643708540686521735 -227
643708540694207672 -244
643708540701893609 -254
643708540709579546 -254
643708540717265483 -252
643708540724951420 -247
643708540732637357 -240
643708540740323294 -230
643708540748009231 -220
643708540755695168 -215
643708540763381105 -210
643708540771067042 -206
643708540778752979 -201
643708540786438916 -191
643708540794124853 -181
643708540801810790 -181
643708540809496727 -179
643708540817182664 -164
643708540824868601 -155
643708540832554538 -155
643708540840240475 -152
643708540847926412 -147
643708540855612349 -145
643708540863298286 -145
643708540870984223 -143
643708540878670160 -145
643708540886356097 -150
643708540894042034 -152
643708540901727971 -147
643708540909413908 -147
643708540917099845 -150
643708540924785782 -150
643708540932471719 -150
643708540940157656 -150
643708540947843593 -147
643708540955529530 -145
643708540963195412 -140
643708540970881628 -138
643708540978567844 -135
643708540986254060 -133
643708540993940276 -133
643708541001626492 -123
643708541009312708 -121
643708541016998924 -123
643708541024685140 -126
643708541032371356 -126
643708541040057572 -118
643708541047743788 -111
643708541055430004 -109
643708541063116220 -106
643708541070802436 -104
643708541078488652 -106
643708541086174868 -109
643708541093861084 -106
643708541101547300 -106
643708541109233516 -104
643708541116919732 -97
643708541124605948 -97
643708541132292164 -101
643708541139978380 -101
643708541147664596 -97
643708541155350812 -94
643708541163037028 -94
643708541170723244 -92
643708541178409460 -89
643708541186095676 -87
643708541193781892 -89
643708541201468108 -92
643708541209154324 -87
643708541216840540 -84
643708541224526756 -84
643708541232212972 -82
643708541239899188 -80
643708541247585404 -77
643708541255271620 -77
643708541262957836 -77
643708541270644052 -77
643708541278330268 -75
643708541286016484 -70
643708541293702700 -70
643708541301388916 -70
643708541309075132 -65
643708541316761348 -65
643708541324447564 -67
643708541332133780 -67
643708541339819996 -70
643708541347506212 -77
643708541355192428 -80
643708541362878644 -77
643708541370564860 -72
643708541378251076 -63
643708541385937292 -46
643708541393623508 -24
643708541401309724 -26
643708541408995940 -43
643708541416682156 -53
643708541424368372 -63
643708541432054588 -70
643708541439740804 -67
643708541447427020 -63
643708541455113236 -60
643708541462799452 -77
643708541470485668 -109
643708541478171884 -16
643708541485858100 368
643708541493544316 938
643708541501230532 1396
643708541508916748 1367
643708541516602964 620
643708541524314314 -223
643708541532000181 -358
643708541539686048 -128
643708541547371915 -133
643708541555057782 -191
643708541562743649 -145
643708541570429516 -143
643708541578115383 -169
643708541585801250 -150
643708541593487117 -130
643708541601172984 -126
643708541608858851 -111
643708541616544718 -99
643708541624230585 -99
643708541631916452 -94
643708541639602319 -80
643708541647288186 -63
643708541654974053 -48
643708541662659920 -29
643708541670345787 -4
643708541678031654 14
643708541685717521 33
643708541693403388 63
643708541701089255 104
643708541708775122 147
643708541716460989 196
643708541724146856 249
643708541731832723 312
643708541739518590 371
643708541747204457 419
643708541754890324 458
643708541762576191 482
643708541770262058 477
643708541777947925 429
643708541785633792 327
643708541793319659 194
643708541801005526 60
643708541808691393 -50
643708541816377260 -133
643708541824063127 -194
643708541831748994 -235
643708541839434861 -252
643708541847120728 -261
643708541854806595 -269
643708541862492462 -264
643708541870178329 -257
643708541877864196 -257
643708541885550063 -254
643708541893235930 -254
643708541900921797 -254
643708541908607664 -225
643708541916293531 -194
643708541923979398 -201
643708541931665265 -208
643708541939351132 -198
643708541947036999 -191
643708541954722866 -189
643708541962408733 -179
643708541970094600 -172
643708541977780467 -169
643708541985466334 -164
643708541993152201 -160
643708542000838068 -162
643708542008523935 -162
643708542016209802 -155
643708542023895669 -150
643708542031581536 -147
643708542039267403 -140
643708542046953270 -140
643708542054639137 -147
643708542062325004 -143
643708542070010871 -130
643708542077696738 -140
643708542085382657 -150
643708542093068524 -145
643708542100754391 -145
643708542108440258 -145
643708542116126125 -140
643708542123811992 -138
643708542131497859 -138
643708542139183726 -135
643708542146869593 -128
643708542154555460 -126
643708542162241327 -130
643708542169927194 -135
643708542177613061 -123
643708542185298928 -104
643708542192984795 -106
643708542200670662 -116
643708542208356529 -109
643708542216042396 -104
643708542223728263 -113
643708542231414130 -121
643708542239099997 -116
643708542246785864 -104
643708542254471731 -89
643708542262157598 -87
643708542269843465 -97
643708542277529332 -99
643708542285215199 -94
643708542292901066 -92
643708542300586933 -89
643708542308272800 -87
643708542315958667 -84
643708542323644534 -82
643708542331330401 -80
643708542339016268 -82
643708542346702135 -87
643708542354388002 -77
643708542362073869 -58
643708542369759736 -58
643708542377445603 -70
643708542385131470 -70
643708542392817337 -67
643708542400503204 -72
643708542408189071 -72
643708542415874938 -67
643708542423560805 -82
643708542431246672 -113
643708542438932539 -133
643708542446618406 -109
643708542454304273 -50
643708542461990140 -29
643708542469676007 -38
643708542477361874 -29
643708542485047741 -16
643708542492733608 -36
643708542500419475 -55
643708542508105342 -60
643708542515791209 -65
643708542523477076 -72
643708542531162943 -75
643708542538848810 -55
643708542546534677 -55
643708542554220544 -94
643708542561906411 12
643708542569592278 434
643708542577278145 1033
643708542584964012 1493
643708542592649879 1384
643708542600335746 518
643708542608021613 -281
643708542615707480 -295
643708542623393347 -84
643708542631079214 -147
643708542638765081 -198
643708542646451000 -145
643708542654136867 -157
643708542661822734 -181
643708542669508601 -157
643708542677194468 -140
643708542684880335 -140
643708542692566202 -128
643708542700252069 -109
643708542707937936 -94
643708542715623803 -94
643708542723309670 -99
643708542730995537 -92
643708542738681404 -65
643708542746367271 -33
643708542754053138 -21
643708542761739005 -9
643708542769424872 24
643708542777110739 38
643708542784796606 70
643708542792482473 145
643708542800168340 189
643708542807854207 227
643708542815540074 305
643708542823225941 358
643708542830911808 380
643708542838597675 409
643708542846283542 434
643708542853969409 426
643708542861655276 371
643708542869341143 283
643708542877027010 162
643708542884712877 24
643708542892398744 -80
643708542900084611 -155
643708542907770478 -220
643708542915456345 -266
643708542923142212 -286
643708542930828079 -274
643708542938513946 -261
643708542946199813 -257
643708542953885680 -247
643708542961571547 -247
643708542969257414 -252
643708542976943281 -244
643708542984629148 -242
643708542992315015 -242
643708543000000882 -218
643708543007686749 -196
643708543015372616 -203
643708543023058483 -203
643708543030744350 -198
643708543038430217 -191
643708543046116084 -174
643708543053801951 -167
643708543061487818 -172
643708543069173685 -172
643708543076859552 -162
643708543084545419 -138
643708543092231286 -130
643708543099917153 -155
643708543107603020 -150
643708543115288887 -126
643708543122974754 -138
643708543130660621 -147
643708543138346488 -130
643708543146032355 -143
643708543153718222 -169
643708543161404089 -147
643708543169089956 -118
643708543176775823 -133
643708543184461690 -143
643708543192147557 -138
643708543199833424 -147
643708543207519343 -140
643708543215205210 -113
643708543222891077 -111
643708543230576944 -123
643708543238262811 -116
643708543245948678 -113
643708543253634545 -130
643708543261320412 -118
643708543269006279 -94
643708543276692146 -106
643708543284378013 -121
643708543292063880 -121
643708543299749747 -118
643708543307435614 -99
643708543315121481 -82
643708543322807348 -80
643708543330493215 -92
643708543338179082 -106
643708543345864949 -97
643708543353550816 -77
643708543361236683 -84
643708543368922550 -89
643708543376608417 -75
643708543384294284 -89
643708543391980151 -101
643708543399666018 -55
643708543407351885 -38
643708543415037752 -82
643708543422723619 -101
643708543430409486 -97
643708543438095353 -82
643708543445781220 -55
643708543453467087 -65
643708543461152954 -84
643708543468838821 -75
643708543476524688 -63
643708543484210555 -75
643708543491896422 -97
643708543499582289 -80
643708543507268156 -38
643708543514954023 -38
643708543522639890 -75
643708543530325757 -89
643708543538011624 -72
643708543545697491 -58
643708543553383358 -55
643708543561069225 -50
643708543568755092 -38
643708543576440959 -12
643708543584126826 2
643708543591812693 -24
643708543599498560 -58
643708543607184427 -63
643708543614870294 -50
643708543622556161 -26
643708543630242028 -9
643708543637927895 -43
643708543645613762 -97
643708543653299629 -63
643708543660985496 220
643708543668671363 756
643708543676357230 1324
643708543684043097 1527
643708543691728964 974
643708543699414831 29
643708543707100698 -341
643708543714786565 -138
643708543722472432 -92
643708543730158299 -198
643708543737844166 -167
643708543745530033 -133
643708543753215900 -164
643708543760901767 -160
643708543768587686 -133
643708543776273553 -133
643708543783959420 -133
643708543791645287 -104
643708543799331154 -77
643708543807017021 -87
643708543814702888 -92
643708543822388755 -63
643708543830074622 -48
643708543837760489 -70
643708543845446356 -75
643708543853132223 -26
643708543860818090 31
643708543868503957 50
643708543876189824 58
643708543883875691 118
643708543891561558 194
643708543899247425 218
643708543906933292 240
643708543914619159 305
643708543922305026 361
643708543929990893 380
643708543937676760 400
643708543945362627 429
643708543953048494 414
643708543960734361 310
643708543968420228 162
643708543976106095 16
643708543983791962 -84
643708543991477829 -94
643708543999163696 -121
643708544006849563 -220
643708544014535430 -276
643708544022221297 -286
643708544029907164 -278
643708544037593031 -242
643708544045278898 -254
643708544052964765 -286
643708544060650632 -259
643708544068336499 -223
643708544076022366 -215
643708544083708233 -208
643708544091394100 -213
643708544099079967 -215
643708544106765834 -194
643708544114451701 -181
643708544122137568 -198
643708544129823435 -179
643708544137509302 -140
643708544145195169 -157
643708544152881036 -186
643708544160566903 -189
643708544168252770 -198
643708544175938637 -162
643708544183624504 -113
643708544191310371 -133
643708544198996238 -143
643708544206682105 -133
643708544214367972 -157
643708544222053839 -177
643708544229739706 -164
643708544237425573 -143
643708544245111440 -111
643708544252797307 -89
643708544260483174 -113
643708544268169041 -133
643708544275854908 -123
643708544283540775 -121
643708544291226642 -130
643708544298912509 -135
643708544306598376 -111
643708544314284243 -77
643708544321970110 -94
643708544329656033 -116
643708544337341900 -106
643708544345027767 -106
643708544352713634 -121
643708544360399501 -109
643708544368085368 -99
643708544375771235 -106
643708544383457102 -113
643708544391142969 -111
643708544398828836 -113
643708544406514703 -111
643708544414200570 -104
643708544421886437 -94
643708544429572304 -94
643708544437258171 -99
643708544444944038 -101
643708544452629905 -101
643708544460315772 -99
643708544468001639 -92
643708544475687506 -89
643708544483373373 -94
643708544491059240 -97
643708544498745107 -92
643708544506430974 -82
643708544514116841 -87
643708544521802708 -92
643708544529488575 -75
643708544537174442 -65
643708544544860309 -60
643708544552546176 -50
643708544560232043 -70
643708544567917910 -94
643708544575603777 -82
643708544583289644 -75
643708544590975511 -80
643708544598661378 -55
643708544606347245 -19
643708544614033112 -2
643708544621718979 -9
643708544629404846 -36
643708544637090713 -55
643708544644776580 -58
643708544652462447 -55
643708544660148314 -58
643708544667834181 -55
643708544675520048 -58
643708544683205915 -77
643708544690891782 -87
643708544698577649 65
643708544706263516 516
643708544713949383 1091
643708544721635250 1447
643708544729321117 1205
643708544737006984 349
643708544744692851 -303
643708544752378718 -274
643708544760064585 -121
643708544767750452 -155
643708544775436319 -164
643708544783122186 -140
643708544790808053 -164
643708544798493920 -174
643708544806179787 -130
643708544813865654 -101
643708544821551521 -116
643708544829237388 -121
643708544836923255 -94
643708544844609122 -75
643708544852294989 -75
643708544859980856 -70
643708544867666723 -53
643708544875352590 -48
643708544883038457 -26
643708544890694280 16
643708544898380565 33
643708544906066850 46
643708544913753135 84
643708544921439420 123
643708544929125705 155
643708544936811990 191
643708544944498275 259
643708544952184560 341
643708544959870845 388
643708544967557130 412
643708544975243415 438
643708544982929700 446
643708544990615985 419
643708544998302270 358
643708545005988555 269
643708545013674840 135
643708545021361125 -9
643708545029047410 -109
643708545036733695 -177
643708545044419980 -237
643708545052106265 -271
643708545059792550 -281
643708545067478835 -283
643708545075165120 -283
643708545082851405 -278
643708545090537690 -274
643708545098223975 -274
643708545105910260 -264
643708545113596545 -249
643708545121282830 -242
643708545128969115 -237
643708545136655400 -230
643708545144341685 -220
643708545152027970 -210
643708545159714255 -201
643708545167400540 -189
643708545175086825 -191
643708545182773110 -196
643708545190459395 -189
643708545198145680 -177
643708545205831965 -172
643708545213518250 -167
643708545221204535 -167
643708545228890820 -169
643708545236577105 -169
643708545244263390 -167
643708545251949675 -164
643708545259635960 -162
643708545267322245 -157
643708545275008530 -160
643708545282694815 -160
643708545290381100 -157
643708545298067385 -155
643708545305753670 -155
643708545313439955 -160
643708545321126240 -162
643708545328812525 -152
643708545336498810 -135
643708545344185095 -128
643708545351871380 -130
643708545359557665 -138
643708545367243950 -145
643708545374930235 -143
643708545382616520 -135
643708545390302805 -130
643708545397989090 -133
643708545405675375 -133
643708545413361660 -126
643708545421047945 -123
643708545428734230 -123
643708545436420515 -121
643708545444106800 -121
643708545451823237 -123
643708545459509104 -126
643708545467194971 -126
643708545474880838 -130
643708545482566705 -126
643708545490252572 -126
643708545497938439 -128
643708545505624306 -126
643708545513310173 -123
643708545520996040 -130
643708545528681907 -140
643708545536367774 -133
643708545544053641 -118
643708545551739508 -113
643708545559425375 -118
643708545567111242 -126
643708545574797109 -116
643708545582482976 -99
643708545590168843 -123
643708545597854710 -157
643708545605540577 -118
643708545613226444 -75
643708545620912311 -111
643708545628598178 -143
643708545636284045 -130
643708545643969912 -109
643708545651655779 -60
643708545659341646 -12
643708545667027513 -33
643708545674713380 -84
643708545682399247 -109
643708545690085114 -138
643708545697770981 -135
643708545705456848 -67
643708545713142715 -21
643708545720828582 -63
643708545728514449 -130
643708545736200316 -164
643708545743886183 12
643708545751572050 540
643708545759257917 1176
643708545766943784 1532
643708545774629651 1239
643708545782315518 271
643708545790001385 -429
643708545797687252 -269
643708545805373119 -29
643708545813058986 -164
643708545820744853 -235
643708545828430720 -172
643708545836116587 -189
643708545843802454 -223
643708545851488321 -215
643708545859174188 -169
643708545866860055 -109
643708545874545922 -140
643708545882231789 -186
643708545889917656 -121
643708545897603523 -80
643708545905289390 -118
643708545912975257 -138
643708545920661124 -104
643708545928346991 -33
643708545936032858 -12
643708545943718725 -31
643708545951404592 0
643708545959090459 41
643708545966776326 60
643708545974462193 101
643708545982148060 157
643708545989833927 210
643708545997519794 276
643708546005205661 332
643708546012891580 356
643708546020577447 373
643708546028263314 412
643708546035949181 409
643708546043635048 312
643708546051320915 196
643708546059006782 111
643708546066692649 4
643708546074378516 -113
643708546082064383 -189
643708546089750250 -244
643708546097436117 -271
643708546105121984 -252
643708546112807851 -264
643708546120493718 -300
643708546128179585 -278
643708546135865452 -240
643708546143551319 -235
643708546151237186 -240
643708546158923053 -240
643708546166608920 -240
643708546174294787 -232
643708546181980654 -220
643708546189666521 -206
643708546197352388 -198
643708546205038255 -198
643708546212724122 -196
643708546220409989 -189
643708546228095856 -179
643708546235781723 -172
643708546243467590 -169
643708546251153457 -164
643708546258839324 -160
643708546266525191 -155
643708546274211058 -150
643708546281896925 -152
643708546289582792 -155
643708546297268659 -147
643708546304954526 -140
643708546312640393 -140
643708546320326260 -143
643708546328012127 -145
643708546335697994 -145
643708546343383861 -138
643708546351069728 -135
643708546358755595 -138
643708546366441462 -133
643708546374127329 -123
643708546381813196 -128
643708546389499063 -138
643708546397184930 -130
643708546404870797 -123
643708546412556664 -121
643708546420242531 -121
643708546427928398 -121
643708546435614265 -121
643708546443300132 -116
643708546450985999 -111
643708546458671866 -111
643708546466357733 -113
643708546474043600 -116
643708546481729467 -116
643708546489415334 -109
643708546497101201 -99
643708546504787068 -104
643708546512472935 -104
643708546520158802 -97
643708546527844669 -99
643708546535530536 -97
643708546543216403 -92
643708546550902270 -101
643708546558588137 -101
643708546566274004 -82
643708546573929827 -82
643708546581616112 -92
643708546589302397 -97
643708546596988682 -99
643708546604674967 -106
643708546612361252 -109
643708546620047537 -92
643708546627733822 -94
643708546635420107 -130
643708546643106392 -130
643708546650792677 -99
643708546658478962 -89
643708546666165247 -99
643708546673851532 -97
643708546681537817 -72
643708546689224102 -48
643708546696910387 -43
643708546704596672 -58
643708546712282957 -72
643708546719969242 -77
643708546727655527 -75
643708546735341812 -67
643708546743028097 -63
643708546750714382 -75
643708546758400667 -118
643708546766086952 -113
643708546773773237 121
643708546781459522 625
643708546789145807 1188
643708546796832092 1503
643708546804518377 1154
643708546812204662 210
643708546819890947 -368
643708546827577232 -237
643708546835263517 -109
643708546842949802 -191
643708546850636087 -164
643708546858322372 -121
643708546866008657 -167
643708546873694942 -174
643708546881381227 -150
643708546889067512 -164
643708546896753797 -174
643708546904440082 -152
643708546912126367 -84
643708546919812652 -36
643708546927498937 -75
643708546935185222 -94
643708546942871507 -58
643708546950557792 -41
643708546958244077 -41
643708546965930362 -24
643708546973616647 -2
643708546981302932 9
643708546988989217 41
643708546996675502 101
643708547004361787 152
643708547012048072 181
643708547019734357 230
643708547027420642 312
643708547035106927 363
643708547042793212 378
643708547050479497 412
643708547058165782 448
643708547065852067 421
643708547073538352 327
643708547081224637 208
643708547088910922 97
643708547096597207 -24
643708547104283492 -135
643708547111969777 -203
643708547119656062 -237
643708547127342347 -249
643708547135058784 -264
643708547142744651 -276
643708547150430518 -278
643708547158116385 -274
643708547165802252 -252
643708547173488119 -237
643708547181173986 -261
643708547188859853 -271
643708547196545720 -249
643708547204231587 -230
643708547211917454 -203
643708547219603321 -191
643708547227289188 -218
643708547234975055 -223
643708547242660922 -203
643708547250346789 -191
643708547258032656 -157
643708547265718523 -147
643708547273404390 -174
643708547281090257 -179
643708547288776124 -172
643708547296461991 -169
643708547304147858 -164
643708547311833725 -157
643708547319519592 -162
643708547327205459 -164
643708547334891326 -150
643708547342577193 -152
643708547350263060 -174
643708547357948927 -164
643708547365634794 -143
643708547373320661 -143
643708547381006528 -152
643708547388692395 -147
643708547396378262 -133
643708547404064129 -140
643708547411749996 -155
643708547419435863 -133
643708547427121730 -92
643708547434807597 -99
643708547442493464 -135
643708547450179331 -128
643708547457865198 -104
643708547465551065 -113
643708547473236932 -130
643708547480922799 -123
643708547488608666 -109
643708547496294533 -101
643708547503980400 -89
643708547511666267 -99
643708547519352134 -116
643708547527038001 -116
643708547534723868 -109
643708547542409735 -77
643708547550095602 -53
643708547557781469 -92
643708547565467336 -116
643708547573153203 -94
643708547580839070 -82
643708547588524937 -87
643708547596210804 -101
643708547603896671 -101
643708547611582538 -82
643708547619268405 -87
643708547626954272 -109
643708547634640139 -89
643708547642326006 -26
643708547650011873 -16
643708547657697740 -58
643708547665383607 -41
643708547673069474 -53
643708547680755341 -138
643708547688441208 -133
643708547696117051 -65
643708547703803058 -80
643708547711489065 -109
643708547719175072 -97
643708547726861079 -87
643708547734547086 92
643708547742233093 596
643708547749919100 1188
643708547757605107 1445
643708547765291114 1011
643708547772977121 89
643708547780663128 -424
643708547788349135 -274
643708547796035142 -138
643708547803721149 -206
643708547811407156 -201
643708547819093163 -167
643708547826779170 -191
643708547834465177 -194
643708547842151184 -167
643708547849837191 -157
643708547857523198 -162
643708547865209205 -150
643708547872895212 -133
643708547880581219 -118
643708547888267226 -106
643708547895953233 -92
643708547903639240 -82
643708547911325247 -67
643708547919011254 -48
643708547926697261 -29
643708547934383268 -4
643708547942069275 21
643708547949755282 48
643708547957441289 87
643708547965127296 150
643708547972813303 206
643708547980499310 249
643708547988185317 305
643708547995871324 358
643708548003557331 390
643708548011243338 404
643708548018929345 404
643708548026615352 368
643708548034301359 276
643708548041987366 147
643708548049673373 26
643708548057359380 -75
643708548065045387 -164
643708548072731394 -230
643708548080417401 -276
643708548088103408 -303
643708548095789415 -305
643708548103475422 -298
643708548111161429 -300
643708548118847436 -295
643708548126533443 -281
643708548134219450 -276
643708548141905457 -271
643708548149591464 -261
643708548157277471 -254
643708548164963478 -244
643708548172649485 -235
643708548180335492 -225
643708548188021499 -210
643708548195707506 -196
643708548203393513 -194
643708548211079520 -189
643708548218765527 -172
643708548226451534 -177
643708548234137541 -191
643708548241823548 -174
643708548249509555 -157
643708548257185560 -157
643708548264871706 -157
643708548272557852 -155
643708548280243998 -155
643708548287930144 -147
643708548295616290 -143
643708548303302436 -147
643708548310988582 -155
643708548318674728 -147
643708548326360874 -140
643708548334047020 -143
643708548341733166 -140
643708548349419312 -135
643708548357105458 -130
643708548364791604 -133
643708548372477750 -135
643708548380163896 -138
643708548387850042 -135
643708548395536188 -128
643708548403222334 -118
643708548410908480 -123
643708548418594626 -133
643708548426280772 -130
643708548433966918 -116
643708548441653064 -109
643708548449339210 -109
643708548457025356 -104
643708548464711502 -97
643708548472397648 -99
643708548480083794 -104
643708548487769940 -104
643708548495456086 -99
643708548503142232 -97
643708548510828378 -97
643708548518514524 -101
643708548526200670 -104
643708548533886816 -99
643708548541572962 -94
643708548549259108 -97
643708548556945254 -99
643708548564631400 -99
643708548572317546 -101
643708548580003692 -101
643708548587689838 -87
643708548595375984 -77
643708548603062130 -63
643708548610748276 -41
643708548618434422 -46
643708548626120568 -67
643708548633806714 -77
643708548641492860 -80
643708548649179006 -77
643708548656865152 -75
643708548664551298 -72
643708548672237444 -77
643708548679923590 -116
643708548687609736 -113
643708548695295882 123
643708548702982028 637
643708548710668174 1200
643708548718354320 1484
643708548726040466 1079
643708548733726612 126
643708548741412758 -402
643708548749098904 -240
643708548756785050 -126
643708548764471196 -223
643708548772157342 -215
643708548779843488 -177
643708548787529634 -198
643708548795215780 -196
643708548802901926 -174
643708548810588072 -169
643708548818294335 -167
643708548825980202 -152
643708548833666069 -145
643708548841351936 -133
643708548849037803 -118
643708548856723670 -109
643708548864409537 -94
643708548872095404 -77
643708548879781271 -60
643708548887467138 -41
643708548895153005 -16
643708548902838872 12
643708548910524739 41
643708548918210606 80
643708548925896473 123
643708548933582340 172
643708548941268207 225
643708548948954074 281
643708548956639941 327
643708548964325808 363
643708548972011675 388
643708548979697542 390
643708548987383409 356
643708548995069276 276
643708549002755143 157
643708549010441010 33
643708549018126877 -70
643708549025812744 -150
643708549033498611 -201
643708549041184478 -220
643708549048870345 -252
643708549056556212 -283
643708549064242079 -276
643708549071927946 -266
643708549079613813 -269
643708549087299680 -254
643708549094985547 -261
643708549102671414 -276
643708549110357281 -237
643708549118043148 -213
643708549125729015 -215
643708549133414882 -208
643708549141100749 -218
643708549148786616 -218
643708549156472483 -191
643708549164158350 -181
643708549171844217 -179
643708549179530084 -167
643708549187215951 -169
643708549194901818 -169
643708549202587685 -155
643708549210273552 -143
643708549217959419 -145
643708549225645286 -152
643708549233331153 -145
643708549241017020 -145
643708549248702887 -155
643708549256388754 -138
643708549264074621 -118
643708549271760488 -143
643708549279446355 -167
643708549287132222 -150
643708549294818089 -130
643708549302503956 -140
643708549310189823 -147
643708549317875690 -135
643708549325561557 -118
643708549333247424 -126
643708549340933291 -130
643708549348619158 -113
643708549356305025 -116
643708549363990892 -133
643708549371676759 -123
643708549379362678 -109
643708549387048545 -94
643708549394734412 -92
643708549402420279 -130
643708549410106146 -138
643708549417792013 -101
643708549425477880 -111
643708549433163747 -145
643708549440849614 -123
643708549448535481 -97
643708549456221348 -99
643708549463907215 -94
643708549471593082 -118
643708549479278949 -150
643708549486964816 -118
643708549494650683 -75
643708549502336550 -89
643708549510022417 -111
643708549517708284 -97
643708549525394151 -87
643708549533080018 -111
643708549540765885 -128
643708549548451752 -109
643708549556137619 -94
643708549563823486 -111
643708549571509353 -121
643708549579195220 -113
643708549586881087 -109
643708549594566954 -109
643708549602252821 -94
643708549609938688 -72
643708549617624555 -70
643708549625310422 -53
643708549632996289 -48
643708549640682156 -99
643708549648368023 -126
643708549656053890 -118
643708549663739757 -99
643708549671425624 -26
643708549679111491 -16
643708549686797358 -126
643708549694483225 -101
643708549702169092 220
643708549709854959 751
643708549717540826 1282
643708549725226693 1447
643708549732912560 858
643708549740598427 -67
643708549748284294 -402
643708549755970161 -210
643708549763656028 -179
643708549771341895 -261
643708549779027762 -215
643708549786713629 -181
643708549794399496 -213
643708549802085363 -201
643708549809771230 -169
643708549817457097 -177
643708549825142964 -189
643708549832828831 -177
643708549840514698 -152
643708549848200565 -143
643708549855886432 -128
643708549863572299 -99
643708549871258166 -82
643708549878944033 -75
643708549886629900 -63
643708549894315767 -33
643708549902001634 -7
643708549909687501 -4
643708549917373368 26
643708549925059235 101
643708549932745102 167
643708549940431021 213
643708549948116888 261
643708549955802755 310
643708549963488622 368
643708549971174489 407
643708549978860356 397
643708549986546223 383
643708549994232090 354
643708550001917957 249
643708550009603824 109
643708550017289691 -7
643708550024975558 -101
643708550032661425 -184
643708550040347292 -249
643708550048033159 -288
643708550055719026 -310
643708550063404893 -320
643708550071090760 -315
643708550078776627 -307
643708550086462494 -291
643708550094148361 -278
643708550101834228 -278
643708550109520095 -278
643708550117205962 -271
643708550124891829 -269
643708550132577696 -269
643708550140263563 -254
643708550147949430 -237
643708550155635297 -227
643708550163321164 -220
643708550171007031 -218
643708550178692898 -213
643708550186378765 -198
643708550194064632 -184
643708550201750499 -179
643708550209436366 -181
643708550217122233 -179
643708550224808100 -174
643708550232493967 -169
643708550240179834 -167
643708550247865701 -162
643708550255551568 -160
643708550263237435 -157
643708550270923302 -155
643708550278609169 -155
643708550286295036 -152
643708550293980903 -145
643708550301666770 -143
643708550309352637 -145
643708550317038504 -145
643708550324724371 -140
643708550332410238 -140
643708550340096105 -133
643708550347781972 -128
643708550355467839 -126
643708550363153706 -123
643708550370839573 -118
643708550378525440 -113
643708550386211307 -113
643708550393897174 -111
643708550401583041 -106
643708550409268908 -99
643708550416954775 -97
643708550424640642 -97
643708550432326509 -97
643708550440012376 -97
643708550447698243 -101
643708550455384110 -101
643708550463069977 -94
643708550470755844 -87
643708550478441711 -80
643708550486127578 -58
643708550493813445 -38
643708550501469268 -58
643708550509155553 -80
643708550516841838 -87
643708550524528123 -87
643708550532214408 -84
643708550539900693 -82
643708550547586978 -82
643708550555273263 -97
643708550562959548 -123
643708550570645833 -84
643708550578332118 215
643708550586018403 783
643708550593704688 1314
643708550601390973 1418
643708550609077258 809
643708550616763543 -113
643708550624449828 -436
643708550632136113 -206
643708550639822398 -152
643708550647508683 -230
643708550655194968 -186
643708550662881253 -164
643708550670567538 -196
643708550678253823 -184
643708550685940108 -162
643708550693626393 -160
643708550701312678 -150
643708550708998963 -133
643708550716685248 -118
643708550724371533 -106
643708550732057818 -92
643708550739744103 -82
643708550747430388 -67
643708550755116673 -50
643708550762802958 -38
643708550770489243 -19
643708550778175528 4
643708550785861813 29
643708550793548098 65
643708550801234383 106
643708550808920668 155
643708550816606953 215
643708550824293238 266
643708550831979523 312
643708550839665808 361
643708550847352093 395
643708550855038378 409
643708550862724663 400
643708550870410948 339
643708550878097233 220
643708550885783518 80
643708550893469803 -46
643708550901156088 -147
643708550908842373 -220
643708550916528658 -264
643708550924214943 -293
643708550931901228 -310
643708550939587513 -312
643708550947273798 -307
643708550954960083 -300
643708550962646368 -295
643708550970332653 -293
643708550978018938 -281
643708550985705223 -271
643708550993391508 -269
643708551001077793 -261
643708551008764078 -247
643708551016450363 -242
643708551024136648 -237
643708551031822933 -225
643708551039509218 -213
643708551047195503 -203
643708551054881788 -194
643708551062598229 -189
643708551070284096 -186
643708551077969963 -177
643708551085655830 -172
643708551093341697 -169
643708551101027564 -164
643708551108713431 -157
643708551116399298 -157
643708551124085165 -160
643708551131771032 -162
643708551139456899 -162
643708551147142766 -157
643708551154828633 -150
643708551162514500 -150
643708551170200367 -150
643708551177886234 -147
643708551185572101 -145
643708551193257968 -135
643708551200943835 -121
643708551208629702 -128
643708551216315569 -145
643708551224001436 -140
643708551231687303 -128
643708551239373170 -126
643708551247059037 -126
643708551254744904 -123
643708551262430771 -126
643708551270116638 -135
643708551277802505 -133
643708551285488372 -123
643708551293174239 -126
643708551300860106 -135
643708551308545973 -116
643708551316231840 -104
643708551323917707 -130
643708551331603574 -138
643708551339289441 -123
643708551346975308 -133
643708551354661175 -152
643708551362347042 -143
643708551370032909 -130
643708551377718776 -143
643708551385404643 -172
643708551393090510 -177
643708551400776377 -155
643708551408462244 -147
643708551416148111 -123
643708551423833978 -87
643708551431519845 -101
643708551439205712 -121
643708551446891579 -111
643708551454577446 -138
643708551462263313 -169
643708551469949180 -147
643708551477635047 -121
643708551485320914 -116
643708551493006781 -140
643708551500692648 -186
643708551508378515 -80
643708551516064382 366
643708551523750249 1008
643708551531436116 1508
643708551539121983 1411
643708551546807850 526
643708551554493717 -334
643708551562179584 -392
643708551569865451 -181
643708551577551318 -244
643708551585237185 -291
643708551592923052 -244
643708551600608919 -278
643708551608294786 -298
643708551615980653 -254
643708551623636476 -237
643708551631322761 -237
643708551639009046 -223
643708551646695331 -208
643708551654381616 -206
643708551662067901 -189
643708551669754186 -172
643708551677440471 -174
643708551685126756 -155
643708551692813041 -123
643708551700499326 -111
643708551708185611 -94
643708551715871896 -50
643708551723558181 -21
643708551731244466 -2
643708551738930751 38
643708551746617036 94
643708551754303321 150
643708551761989606 208
643708551769675891 259
643708551777362176 291
643708551785048461 324
643708551792734746 361
643708551800421031 334
643708551808107316 247
643708551815793601 152
643708551823479886 36
643708551831166171 -87
643708551838852456 -169
643708551846538741 -223
643708551854225026 -266
643708551861911311 -288
643708551869597596 -295
643708551877283881 -303
643708551884970166 -303
643708551892656451 -303
643708551900342736 -312
643708551908029021 -300
643708551915715306 -230
643708551923401591 -196
643708551931087876 -232
643708551938774161 -230
643708551946460446 -191
643708551954146731 -198
643708551961833016 -203
643708551969519301 -181
643708551977205586 -174
643708551984891871 -172
643708551992578156 -160
643708552000264441 -152
643708552007950726 -150
643708552015637011 -143
643708552023323296 -133
643708552031009581 -133
643708552038695866 -133
643708552046382151 -130
643708552054068436 -130
643708552061754721 -130
643708552069441006 -128
643708552077127291 -123
643708552084813576 -118
643708552092499861 -113
643708552100186146 -106
643708552107872431 -104
643708552115558716 -104
643708552123245001 -104
643708552130931286 -101
643708552138617571 -94
643708552146303856 -92
643708552153990141 -92
643708552161676426 -84
643708552169362711 -77
643708552177048996 -77
643708552184765433 -77
643708552192451300 -70
643708552200137167 -67
643708552207823034 -70
643708552215508901 -67
643708552223194768 -65
643708552230880635 -65
643708552238566502 -65
643708552246252369 -65
643708552253938236 -60
643708552261624103 -58
643708552269309970 -63
643708552276995837 -75
643708552284681704 -84
643708552292367571 -80
643708552300053438 -72
643708552307739305 -72
643708552315425172 -77
643708552323111039 -77
643708552330796906 -80
643708552338482773 -80
643708552346168640 -82
643708552353854507 -70
643708552361540374 -48
643708552369226241 -29
643708552376912108 -21
643708552384597975 -26
643708552392283842 -41
643708552399969709 -53
643708552407655576 -46
643708552415341443 -33
643708552423027310 -38
643708552430713177 -53
643708552438399044 -63
643708552446084911 -89
643708552453770778 -87
643708552461456645 157
643708552469142512 710
643708552476828379 1285
643708552484514246 1530
643708552492200113 1113
643708552499885980 164
643708552507571847 -375
643708552515257714 -223
643708552522943581 -116
643708552530629448 -215
643708552538315315 -201
643708552546001182 -147
643708552553687049 -172
643708552561372916 -177
643708552569058783 -145
643708552576744650 -140
643708552584430517 -135
643708552592116384 -123
643708552599802251 -118
643708552607488118 -101
643708552615173985 -84
643708552622859852 -70
643708552630545719 -50
643708552638231586 -33
643708552645917453 -19
643708552653603320 4
643708552661289187 33
643708552668975054 60
643708552676660921 94
643708552684346788 133
643708552692032655 181
643708552699718522 240
643708552707404389 305
643708552715090256 368
643708552722776123 414
643708552730461990 448
643708552738147857 470
643708552745803680 463
643708552753489965 400
643708552761176250 281
643708552768862535 133
643708552776548820 -7
643708552784235105 -121
643708552791921390 -206
643708552799607675 -264
643708552807293960 -300
643708552814980245 -320
643708552822666530 -329
643708552830352815 -337
643708552838039100 -334
643708552845725385 -322
643708552853411670 -312
643708552861097955 -310
643708552868784240 -300
643708552876470525 -283
643708552884156810 -274
643708552891843095 -261
643708552899529380 -249
643708552907215665 -237
643708552914901950 -218
643708552922588235 -206
643708552930274520 -203
643708552937960805 -191
643708552945647090 -181
643708552953333375 -174
643708552961019660 -167
643708552968705945 -160
643708552976392230 -164
643708552984078515 -162
643708552991764800 -155
643708552999451085 -155
643708553007137370 -160
643708553014823655 -157
643708553022509940 -155
643708553030196225 -157
643708553037882510 -160
643708553045568795 -160
643708553053255080 -157
643708553060941365 -150
643708553068627650 -147
643708553076313935 -145
643708553084000220 -140
643708553091686505 -135
643708553099372790 -130
643708553107059075 -123
643708553114745360 -118
643708553122431645 -116
643708553130117930 -118
643708553137804215 -113
643708553145490500 -109
643708553153176785 -101
643708553160863070 -101
643708553168549355 -101
643708553176235640 -106
643708553183921925 -111
643708553191608210 -111
643708553199294495 -106
643708553206980780 -94
643708553214667065 -82
643708553222353350 -60
643708553230039635 -36
643708553237725920 -33
643708553245412205 -48
643708553253098490 -60
643708553260784775 -72
643708553268471060 -80
643708553276157345 -72
643708553283843630 -65
643708553291529915 -67
643708553299216200 -94
643708553306932637 -121
643708553314618504 12
643708553322304371 463
643708553329990238 1076
643708553337676105 1508
643708553345361972 1299
643708553353047839 368
643708553360733706 -349
643708553368419573 -283
643708553376105440 -111
643708553383791307 -189
643708553391477174 -201
643708553399163041 -150
643708553406848908 -169
643708553414534775 -174
643708553422220642 -147
643708553429906509 -140
643708553437592376 -140
643708553445278243 -126
643708553452964110 -111
643708553460649977 -104
643708553468335844 -89
643708553476021711 -77
643708553483707578 -67
643708553491393445 -50
643708553499079312 -31
643708553506765179 -16
643708553514451046 2
643708553522136913 24
643708553529822780 53
643708553537508647 87
643708553545194514 128
643708553552880381 179
643708553560566248 242
643708553568252115 298
643708553575937982 344
643708553583623849 385
643708553591309716 412
643708553598995583 414
643708553606681450 375
643708553614367317 283
643708553622053184 150
643708553629739051 16
643708553637424918 -87
643708553645110785 -167
643708553652796652 -223
643708553660482519 -254
643708553668168386 -271
643708553675854253 -286
643708553683540120 -291
643708553691225987 -286
643708553698911854 -281
643708553706597721 -276
643708553714283588 -271
643708553721969455 -266
643708553729655322 -261
643708553737341189 -252
643708553745027056 -242
643708553752712923 -242
643708553760398790 -235
643708553768084657 -220
643708553775770524 -210
643708553783456391 -203
643708553791142258 -191
643708553798828125 -181
643708553806513992 -172
643708553814199859 -164
643708553821885726 -160
643708553829571593 -160
643708553837257460 -155
643708553844943327 -150
643708553852629194 -147
643708553860315061 -145
643708553867970884 -145
643708553875657169 -143
643708553883343454 -140
643708553891029739 -140
643708553898716024 -138
643708553906402309 -133
643708553914088594 -128
643708553921774879 -128
643708553929461164 -128
643708553937147449 -126
643708553944833734 -121
643708553952520019 -118
643708553960206304 -113
643708553967892589 -111
643708553975578874 -109
643708553983265159 -104
643708553990951444 -104
643708553998637729 -106
643708554006324014 -104
643708554014010299 -97
643708554021696584 -97
643708554029382869 -101
643708554037069154 -101
643708554044755439 -101
643708554052441724 -101
643708554060128009 -101
643708554067814294 -101
643708554075500579 -106
643708554083186864 -116
643708554090873149 -118
643708554098559434 -109
643708554106245719 -92
643708554113932004 -77
643708554121618289 -55
643708554129304574 -38
643708554136990859 -43
643708554144677144 -53
643708554152363429 -60
643708554160049714 -67
643708554167735999 -70
643708554175422284 -67
643708554183108569 -65
643708554190794854 -72
643708554198481139 -109
643708554206167424 -118
643708554213853709 101
643708554221539994 647
643708554229226279 1328
643708554236912564 1714
643708554244598849 1248
643708554252285134 152
643708554259971419 -395
643708554267657704 -196
643708554275343989 -109
643708554283030274 -235
643708554290716559 -215
643708554298402844 -169
643708554306089129 -198
643708554313775414 -196
643708554321461699 -172
643708554329147984 -172
643708554336834269 -164
643708554344520554 -147
643708554352206839 -138
643708554359893124 -128
643708554367579409 -116
643708554375265694 -109
643708554382951979 -104
643708554390638264 -89
643708554398324549 -67
643708554406010834 -48
643708554413697119 -29
643708554421383404 0
643708554429099845 29
643708554436785712 65
643708554444471579 118
643708554452157446 172
643708554459843313 223
643708554467529180 278
643708554475215047 320
643708554482900914 349
643708554490586781 368
643708554498272648 366
643708554505958515 320
643708554513644382 225
643708554521330249 97
643708554529016116 -29
643708554536701983 -126
643708554544387850 -198
643708554552073717 -252
643708554559759584 -281
643708554567445451 -295
643708554575131318 -303
643708554582817185 -307
643708554590503052 -303
643708554598188919 -291
643708554605874786 -281
643708554613560653 -274
643708554621246520 -266
643708554628932387 -259
643708554636618254 -254
643708554644304121 -247
643708554651989988 -240
643708554659675855 -230
643708554667361722 -223
643708554675047589 -220
643708554682733456 -215
643708554690419323 -208
643708554698105190 -198
643708554705791057 -191
643708554713476924 -184
643708554721162791 -179
643708554728848658 -177
643708554736534525 -172
643708554744220392 -169
643708554751906259 -164
643708554759592126 -157
643708554767277993 -152
643708554774963860 -157
643708554782649727 -162
643708554790335594 -155
643708554798021461 -145
643708554805707328 -143
643708554813393195 -140
643708554821079062 -138
643708554828764929 -135
643708554836450796 -133
643708554844136663 -128
643708554851822530 -123
643708554859508397 -116
643708554867194264 -111
643708554874880131 -113
643708554882565998 -111
643708554890251865 -104
643708554897937732 -101
643708554905623599 -101
643708554913309466 -94
643708554920995333 -89
643708554928681200 -89
643708554936367067 -87
643708554944052934 -84
643708554951738801 -84
643708554959424668 -84
643708554967110535 -80
643708554974796402 -77
643708554982482269 -80
643708554990138092 -82
643708554997824377 -77
643708555005510662 -72
643708555013196947 -70
643708555020883232 -70
643708555028569517 -70
643708555036255802 -67
643708555043942087 -65
643708555051628372 -70
643708555059314657 -77
643708555067000942 -77
643708555074687227 -80
643708555082373512 -87
643708555090059797 -89
643708555097746082 -84
643708555105432367 -82
643708555113118652 -82
643708555120804937 -77
643708555128491222 -75
643708555136177507 -75
643708555143863792 -75
643708555151550077 -72
643708555159236362 -67
643708555166922647 -70
643708555174608932 -75
643708555182295217 -80
643708555189981502 -84
643708555197667787 -87
643708555205354072 -82
643708555213040357 -70
643708555220726642 -60
643708555228412927 -48
643708555236099212 -29
643708555243785497 -21
643708555251471782 -38
643708555259158067 -53
643708555266844352 -58
643708555274530637 -63
643708555282216922 -65
643708555289903207 -60
643708555297589492 -63
643708555305275777 -97
643708555312962062 -133
643708555320648347 0
643708555328334632 455
643708555336020917 1117
643708555343707202 1646
643708555351393487 1493
643708555359079772 514
643708555366766057 -315
643708555374452342 -300
643708555382138627 -113
643708555389824912 -210
643708555397511197 -252
643708555405197482 -191
643708555412883767 -201
643708555420570052 -220
643708555428256337 -201
643708555435942622 -191
643708555443628907 -186
643708555451315192 -172
643708555459001477 -164
643708555466687762 -160
643708555474374047 -145
643708555482060332 -130
643708555489746617 -116
643708555497432902 -101
643708555505119187 -89
643708555512805472 -72
643708555520491757 -53
643708555528178042 -33
643708555535864327 -4
643708555543550612 31
643708555551267049 70
643708555558952916 111
643708555566638783 157
643708555574324650 208
643708555582010517 257
643708555589696384 298
643708555597382251 332
643708555605068118 349
643708555612753985 339
643708555620439852 286
643708555628125719 179
643708555635811586 50
643708555643497453 -60
643708555651183320 -143
643708555658869187 -206
643708555666555054 -249
643708555674240921 -276
643708555681926788 -293
643708555689612655 -298
643708555697298522 -293
643708555704984389 -286
643708555712670256 -276
643708555720356123 -269
643708555728041990 -264
643708555735727857 -254
643708555743413724 -247
643708555751099591 -242
643708555758785458 -235
643708555766471325 -232
643708555774157192 -235
643708555781843059 -230
643708555789528926 -218
643708555797214793 -213
643708555804900660 -208
643708555812586527 -201
643708555820272394 -194
643708555827958261 -189
643708555835644128 -189
643708555843329995 -189
643708555851015862 -184
643708555858701729 -177
643708555866387596 -172
643708555874073463 -172
643708555881759330 -174
643708555889445197 -169
643708555897131064 -167
643708555904816931 -164
643708555912502798 -162
643708555920188665 -160
643708555927874532 -160
643708555935560399 -157
643708555943246266 -152
643708555950932133 -147
643708555958618000 -145
643708555966303867 -147
643708555973989734 -150
643708555981675601 -147
643708555989361468 -143
643708555997047335 -140
643708556004733202 -138
643708556012419069 -133
643708556020104936 -130
643708556027790803 -133
643708556035476670 -133
643708556043162537 -128
643708556050848404 -126
643708556058534271 -123
643708556066220138 -126
643708556073906005 -138
643708556081591872 -138
643708556089277739 -130
643708556096963606 -128
643708556104649473 -130
643708556112305296 -128
643708556119991581 -130
643708556127677866 -133
643708556135364151 -130
643708556143050436 -128
643708556150736721 -126
643708556158423006 -123
643708556166109291 -123
643708556173795576 -128
643708556181481861 -128
643708556189168146 -126
643708556196854431 -126
643708556204540716 -126
643708556212227001 -123
643708556219913286 -123
643708556227599571 -123
643708556235285856 -116
643708556242972141 -113
643708556250658426 -116
643708556258344711 -111
643708556266030996 -109
643708556273717281 -113
643708556281403566 -111
643708556289089851 -106
643708556296776136 -109
643708556304462421 -109
643708556312148706 -101
643708556319834991 -99
643708556327521276 -106
643708556335207561 -106
643708556342893846 -109
643708556350580131 -118
643708556358266416 -118
643708556365952701 -109
643708556373638986 -99
643708556381325271 -94
643708556389011556 -80
643708556396697841 -53
643708556404384126 -43
643708556412070411 -63
643708556419756696 -80
643708556427442981 -84
643708556435129266 -84
643708556442815551 -77
643708556450501836 -72
643708556458188121 -82
643708556465874406 -118
643708556473560691 -155
643708556481246976 -43
643708556488933261 373
643708556496619546 972
643708556504305831 1442
643708556511992116 1365
643708556519678401 531
643708556527364686 -303
643708556535050971 -371
643708556542737256 -160
643708556550423541 -196
643708556558109826 -240
643708556565796111 -189
643708556573482396 -198
643708556581168681 -220
643708556588854966 -196
643708556596541251 -174
643708556604227536 -174
643708556611913821 -167
643708556619600106 -150
643708556627286391 -138
643708556634972676 -128
643708556642658961 -118
643708556650345246 -104
643708556658031531 -82
643708556665717816 -63
643708556673434253 -43
643708556681120120 -21
643708556688805987 4
643708556696491854 33
643708556704177721 65
643708556711863588 106
643708556719549455 157
643708556727235322 210
643708556734921189 266
643708556742607056 322
643708556750292923 368
643708556757978790 397
643708556765664657 419
643708556773350524 417
643708556781036391 368
643708556788722258 261
643708556796408125 118
643708556804093992 -12
643708556811779859 -109
643708556819465726 -186
643708556827151593 -244
643708556834837460 -281
643708556842523327 -295
643708556850209194 -293
643708556857895061 -295
643708556865580928 -298
643708556873266795 -288
643708556880952662 -278
643708556888638529 -252
643708556896324396 -230
643708556904010263 -247
643708556911696130 -259
643708556919381997 -232
643708556927067864 -213
643708556934753731 -213
643708556942439598 -203
643708556950125465 -196
643708556957811332 -201
643708556965497199 -194
643708556973183066 -164
643708556980868933 -155
643708556988554800 -164
643708556996240667 -160
643708557003926534 -147
643708557011612401 -140
643708557019298268 -147
643708557026984135 -162
643708557034670002 -157
643708557042355869 -147
643708557050041736 -150
643708557057727603 -143
643708557065413470 -135
643708557073099337 -135
643708557080785204 -162
643708557088471071 -189
643708557096156938 -164
643708557103842805 -130
643708557111528672 -130
643708557119214539 -138
643708557126900406 -128
643708557134586273 -130
643708557142272140 -145
643708557149958007 -145
643708557157643874 -121
643708557165329741 -118
643708557173015608 -150
643708557180701475 -164
643708557188387342 -140
643708557196073209 -128
643708557203759076 -126
643708557211444943 -126
643708557219130810 -133
643708557226816677 -121
643708557234497556 -92
643708557242183493 -92
643708557249869430 -99
643708557257555367 -80
643708557265241304 -92
643708557272927241 -126
643708557280613178 -118
643708557288299115 -87
643708557295985052 -67
643708557303670989 -72
643708557311356926 -99
643708557319042863 -101
643708557326728800 -80
643708557334414737 -77
643708557342100674 -89
643708557349786611 -111
643708557357472548 -106
643708557365158485 -65
643708557372844422 -82
643708557380530359 -135
643708557388216296 -111
643708557395902233 -63
643708557403588170 -77
643708557411274107 -80
643708557418960044 -41
643708557426645981 -21
643708557434331918 -21
643708557442017855 -48
643708557449703792 -84
643708557457389729 -65
643708557465075666 -48
643708557472761603 -99
643708557480447540 -106
643708557488133477 -84
643708557495819414 -106
643708557503505351 46
643708557511191288 523
643708557518877225 1122
643708557526563162 1547
643708557534249099 1353
643708557541935036 395
643708557549620973 -378
643708557557306910 -283
643708557564992847 -77
643708557572678784 -223
643708557580364721 -264
643708557588050658 -147
643708557595736595 -143
643708557603422532 -191
643708557611108469 -186
643708557618794406 -181
643708557626480343 -157
643708557634166280 -87
643708557641852217 -97
643708557649538154 -172
643708557657224091 -133
643708557664910028 -43
643708557672595965 -55
643708557680281902 -99
643708557687967839 -89
643708557695653776 -55
643708557703339713 -31
643708557711025650 9
643708557718711587 80
643708557726397524 106
643708557734083461 94
643708557741769398 172
643708557749455335 281
643708557757141272 298
643708557764827209 288
643708557772513146 346
643708557780199083 400
643708557787885020 419
643708557795570990 409
643708557803256927 327
643708557810942864 257
643708557818628801 138
643708557826314738 -116
643708557834000675 -196
643708557841686612 -118
643708557849372549 -230
643708557857058486 -385
643708557864744423 -307
643708557872430360 -206
643708557880116297 -271
643708557887802234 -307
643708557895488171 -257
643708557903174108 -281
643708557910860045 -300
643708557918545982 -252
643708557926231919 -281
643708557933917856 -332
643708557941603793 -310
643708557949289730 -269
643708557956975667 -210
643708557964661604 -194
643708557972347541 -240
643708557980033478 -237
643708557987719415 -179
643708557995405352 -179
643708558003091289 -223
643708558010777226 -196
643708558018463163 -155
643708558026149100 -194
643708558033835037 -244
643708558041520974 -194
643708558049206911 -123
643708558056892848 -162
643708558064578785 -206
643708558072264722 -174
643708558079950659 -164
643708558087636596 -174
643708558095322533 -135
643708558103008470 -138
643708558110694407 -191
643708558118380344 -162
643708558126066281 -104
643708558133752218 -140
643708558141438155 -208
643708558149124092 -191
643708558156810029 -126
643708558164495966 -116
643708558172181903 -152
643708558179867840 -152
643708558187553777 -92
643708558195239714 -55
643708558202925651 -82
643708558210611588 -133
643708558218297525 -179
643708558225983462 -164
643708558233669399 -101
643708558241355336 -58
643708558249041273 -46
643708558256727210 -113
643708558264413147 -181
643708558272099084 -89
643708558279785021 -26
643708558287470958 -130
643708558295156895 -181
643708558302842832 -116
643708558310528769 -48
643708558318214706 -55
643708558325900643 -104
643708558333586580 -82
643708558341272517 -60
643708558348958454 -94
643708558356629372 -63
643708558364315518 -16
643708558372001664 -70
643708558379687810 -99
643708558387373956 -48
643708558395060102 -48
643708558402746248 -80
643708558410432394 -94
643708558418118540 -38
643708558425804686 307
643708558433490832 914
643708558441176978 1428
643708558448863124 1404
643708558456549270 637
643708558464235416 -257
643708558471921562 -431
643708558479607708 -164
643708558487293854 -128
643708558494980000 -194
643708558502666146 -184
643708558510352292 -184
643708558518038438 -177
643708558525724584 -162
643708558533410730 -169
643708558541096876 -191
643708558548783022 -162
643708558556469168 -75
643708558564155314 -46
643708558571841460 -130
643708558579527606 -155
643708558587213752 -50
643708558594899898 -41
643708558602586044 -99
643708558610272190 -21
643708558617958336 38
643708558625644482 -12
643708558633330628 7
643708558641016774 111
643708558648702920 138
643708558656389066 118
643708558664075212 189
643708558671761358 249
643708558679447504 254
643708558687133650 419
643708558694819796 582
643708558702505942 443
643708558710192088 305
643708558717878234 371
643708558725564380 303
643708558733250526 65
643708558740936672 -46
643708558748622818 -75
643708558756308964 -169
643708558763995110 -264
643708558771681256 -307
643708558779367402 -312
643708558787053548 -291
643708558794739694 -303
643708558802425840 -274
643708558810111986 -206
643708558817798132 -240
643708558825484278 -303
643708558833170424 -271
643708558840856570 -227
643708558848542716 -288
643708558856228862 -307
643708558863915008 -160
643708558871601154 -118
643708558879287300 -227
643708558886973446 -218
643708558894659592 -155
643708558902345738 -181
643708558910031884 -191
643708558917738147 -162
643708558925424014 -160
643708558933109881 -157
643708558940795748 -150
643708558948481615 -198
643708558956167482 -232
643708558963853349 -164
643708558971539216 -116
643708558979225083 -121
643708558986910950 -145
643708558994596817 -191
643708559002282684 -172
643708559009968551 -157
643708559017654418 -172
643708559025340285 -150
643708559033026152 -145
643708559040712019 -135
643708559048397886 -128
643708559056083753 -169
643708559063769620 -210
643708559071455487 -167
643708559079141354 -67
643708559086827221 -55
643708559094513088 -130
643708559102198955 -184
643708559109884822 -169
643708559117570689 -101
643708559125256556 -113
643708559132942423 -196
643708559140628290 -147
643708559148314157 -58
643708559156000024 -94
643708559163685891 -174
643708559171371758 -133
643708559179057625 -53
643708559186743492 -48
643708559194429359 -70
643708559202115226 -145
643708559209801093 -201
643708559217486960 -99
643708559225172827 -19
643708559232858694 -94
643708559240544561 -162
643708559248230428 -130
643708559255916295 60
643708559263602162 594
643708559271288029 1246
643708559278973896 1491
643708559286659763 1057
643708559294345630 121
643708559302031497 -477
643708559309717364 -315
643708559317403231 -145
643708559325089098 -271
643708559332774965 -278
643708559340460832 -218
643708559348146699 -215
643708559355832566 -152
643708559363518433 -126
643708559371204300 -169
643708559378890167 -160
643708559386576034 -145
643708559394261901 -128
643708559401947768 -99
643708559409633635 -113
643708559417319502 -140
643708559425005369 -116
643708559432691236 -48
643708559440377103 -4
643708559448062970 -31
643708559455748837 -43
643708559463434704 46
643708559471120571 140
643708559478806490 164
643708559486492357 143
643708559494178224 133
643708559501864091 271
643708559509549958 480
643708559517235825 511
643708559524921692 414
643708559532607559 409
643708559540293426 533
643708559547979293 545
643708559555665160 307
643708559563351027 87
643708559571036894 29
643708559578722761 -82
643708559586408628 -288
643708559594094495 -361
643708559601780362 -286
643708559609466229 -322
643708559617152096 -429
643708559624837963 -363
643708559632523830 -274
643708559640209697 -349
643708559647895564 -402
643708559655581431 -341
643708559663267298 -310
643708559670953165 -339
643708559678639032 -337
643708559686324899 -266
643708559694010766 -220
643708559701696633 -257
643708559709382500 -286
643708559717068367 -269
643708559724754234 -191
643708559732440101 -130
643708559740125968 -196
643708559747811835 -249
643708559755497702 -189
643708559763183569 -152
643708559770869436 -203
643708559778555303 -232
643708559786241170 -160
643708559793927037 -97
643708559801612904 -150
643708559809298771 -196
643708559816984638 -172
643708559824670505 -169
643708559832356372 -181
643708559840042239 -140
643708559847728106 -123
643708559855413973 -162
643708559863099840 -155
643708559870785707 -106
643708559878471574 -84
643708559886157441 -126
643708559893843308 -184
643708559901529175 -164
643708559909215042 -101
643708559916900909 -99
643708559924586776 -130
643708559932272643 -135
643708559939958510 -128
643708559947644377 -87
643708559955330244 -24
643708559963016111 -38
643708559970701978 -94
643708559978387845 -113
643708559986073712 -87
643708559993759579 -55
643708560001445446 -55
643708560009131313 -89
643708560016817180 -101
643708560024503047 -92
643708560032188914 -67
643708560039844737 266
643708560047531022 960
643708560055217307 1418
643708560062903592 1314
643708560070589877 659
643708560078276162 -138
643708560085962447 -334
643708560093648732 -140
643708560101335017 -194
643708560109021302 -249
643708560116707587 -130
643708560124393872 -194
643708560132080157 -300
643708560139766442 -143
643708560147452727 -21
643708560155139012 -121
643708560162825297 -179
643708560170511582 -145
643708560178197867 -160
643708560185884152 -177
643708560193570437 -111
643708560201256722 -36
643708560208943007 -31
643708560216629292 -43
643708560224315577 -4
643708560232001862 12
643708560239688147 14
643708560247374432 113
643708560255060717 152
643708560262747002 92
643708560270433287 150
643708560278119572 247
643708560285805857 291
643708560293492142 361
643708560301178427 421
643708560308864712 443
643708560316550997 468
643708560324237282 458
643708560331923567 375
643708560339609852 259
643708560347296137 116
643708560354982422 -70
643708560362668707 -223
643708560370354992 -232
643708560378041277 -203
643708560385727562 -288
643708560393413847 -307
643708560401100132 -259
643708560408786417 -312
643708560416472702 -288
643708560424158987 -220
643708560431845272 -269
643708560439531557 -264
643708560447217842 -242
643708560454904127 -288
643708560462590412 -257
643708560470276697 -169
643708560477962982 -155
643708560485649267 -186
643708560493335552 -210
643708560501021837 -210
643708560508708122 -186
643708560516394407 -177
643708560524080692 -201
643708560531766977 -162
643708560539453262 -101
643708560547139547 -143
643708560554825832 -147
643708560562512117 -135
643708560570198402 -189
643708560577884687 -191
643708560585570972 -135
643708560593257257 -109
643708560600973698 -140
643708560608659565 -155
643708560616345432 -133
643708560624031299 -147
643708560631717166 -196
643708560639403033 -172
643708560647088900 -70
643708560654774767 -87
643708560662460634 -203
643708560670146501 -177
643708560677832368 -63
643708560685518235 -75
643708560693204102 -157
643708560700889969 -172
643708560708575836 -210
643708560716261703 -220
643708560723947570 -75
643708560731633437 -9
643708560739319304 -101
643708560747005171 -152
643708560754691038 -92
643708560762376905 -36
643708560770062772 -92
643708560777748639 -113
643708560785434506 -38
643708560793120373 -77
643708560800806240 -152
643708560808492107 -123
643708560816177974 -36
643708560823863841 283
643708560831549708 887
643708560839235575 1430
643708560846921442 1532
643708560854607309 873
643708560862293176 -126
643708560869979043 -414
643708560877664910 -135
643708560885350777 -157
643708560893036644 -283
643708560900722511 -194
643708560908408378 -167
643708560916094245 -201
643708560923780112 -138
643708560931465979 -145
643708560939151846 -201
643708560946837713 -123
643708560954523580 -65
643708560962209447 -128
643708560969895314 -145
643708560977581181 -84
643708560985267048 -65
643708560992952915 -55
643708561000638782 -36
643708561008324649 -55
643708561016010516 4
643708561023696383 72
643708561031382250 21
643708561039068117 55
643708561046753984 164
643708561054439851 157
643708561062125718 157
643708561069811585 303
643708561077497452 460
643708561085183319 429
643708561092869186 341
643708561100555053 395
643708561108240920 441
643708561115926787 320
643708561123612654 155
643708561131298521 89
643708561138984388 2
643708561146670255 -157
643708561154356122 -237
643708561162042041 -276
643708561169727908 -307
643708561177413775 -235
643708561185099642 -172
643708561192785509 -261
643708561200471376 -322
643708561208157243 -242
643708561215843110 -223
643708561223528977 -271
643708561231214844 -201
643708561238900711 -181
643708561246586578 -274
643708561254272445 -203
643708561261958312 -126
643708561269644179 -225
643708561277330046 -230
643708561285015913 -145
643708561292701780 -150
643708561300387647 -143
643708561308073514 -133
643708561315759381 -186
643708561323445248 -164
643708561331131115 -116
643708561338816982 -174
643708561346502849 -164
643708561354188716 -65
643708561361874583 -121
643708561369560450 -220
643708561377246317 -138
643708561384932184 -65
643708561392618051 -152
643708561400303918 -179
643708561407989785 -101
643708561415675652 -116
643708561423361519 -157
643708561431047386 -113
643708561438733253 -58
643708561446419120 -77
643708561454104987 -181
643708561461790854 -194
643708561469476721 -80
643708561477162588 -75
643708561484848455 -94
643708561492534322 -60
643708561500220189 -160
643708561507906056 -194
643708561515591923 -75
643708561523277790 -84
643708561530963657 -140
643708561538649524 -101
643708561546335391 -89
643708561554021258 -82
643708561561707125 -31
643708561569392992 0
643708561577078859 -36
643708561584764726 -155
643708561592450593 -174
643708561600136460 -36
643708561607822327 -16
643708561615508194 -113
643708561623194061 -101
643708561630879928 -80
643708561638565795 4
643708561646251662 487
643708561653937529 1217
643708561661623396 1651
643708561669309263 1290
643708561676995130 230
643708561684680997 -451
643708561692366864 -293
643708561700052731 -109
643708561707738598 -225
643708561715424465 -261
643708561723080288 -186
643708561730766573 -191
643708561738452858 -206
643708561746139143 -177
643708561753825428 -162
643708561761511713 -160
643708561769197998 -162
643708561776884283 -140
643708561784570568 -82
643708561792256853 -97
643708561799943138 -172
643708561807629423 -143
643708561815315708 -58
643708561823001993 -41
643708561830688278 -48
643708561838374563 -29
643708561846060848 2
643708561853747133 14
643708561861433418 36
643708561869119703 118
643708561876805988 196
643708561884492273 235
643708561892178558 261
643708561899864843 288
643708561907551128 375
643708561915237413 436
643708561922923698 361
643708561930609983 310
643708561938296268 276
643708561945982553 99
643708561953668838 -67
643708561961355123 -111
643708561969041408 -123
643708561976727693 -201
643708561984413978 -288
643708561992100263 -264
643708561999786548 -232
643708562007472833 -291
643708562015159118 -281
643708562022845403 -206
643708562030531688 -206
643708562038217973 -249
643708562045904258 -247
643708562053590543 -210
643708562061276828 -196
643708562068963113 -208
643708562076649398 -198
643708562084335683 -189
643708562092021968 -201
643708562099708253 -203
643708562107394538 -172
643708562115080823 -133
643708562122767108 -145
643708562130453393 -194
643708562138139678 -194
643708562145825963 -155
643708562153512248 -177
643708562161198533 -189
643708562168884818 -138
643708562176571103 -138
643708562184257388 -177
643708562191943673 -167
643708562199629958 -147
643708562207316243 -162
643708562215002528 -147
643708562222688813 -130
643708562230375098 -162
643708562238061383 -164
643708562245747668 -121
643708562253433953 -111
643708562261120238 -155
643708562268806523 -138
643708562276492808 -65
643708562284209245 -128
643708562291895112 -189
643708562299580979 -94
643708562307266846 -58
643708562314952713 -130
643708562322638580 -150
643708562330324447 -111
643708562338010314 -77
643708562345696181 -104
643708562353382048 -172
643708562361067915 -157
643708562368753782 -65
643708562376439649 -72
643708562384125516 -135
643708562391811383 -72
643708562399497250 12
643708562407183117 -53
643708562414868984 -155
643708562422554851 -160
643708562430240718 -92
643708562437926585 -65
643708562445612452 -111
643708562453298319 -104
643708562460984186 -67
643708562468670053 -152
643708562476355920 -184
643708562484041787 133
643708562491727654 793
643708562499413521 1469
643708562507099388 1639
643708562514785255 911
643708562522471122 -160
643708562530156989 -475
643708562537842856 -169
643708562545528723 -130
643708562553214590 -283
643708562560900457 -235
643708562568586324 -162
643708562576272191 -210
643708562583958058 -244
643708562591643925 -184
643708562599329792 -126
643708562607015659 -133
643708562614701526 -181
643708562622387393 -194
643708562630073260 -109
643708562637759127 -77
643708562645444994 -130
643708562653130861 -126
643708562660816728 -94
643708562668502595 -99
643708562676188462 -75
643708562683874329 2
643708562691560196 63
643708562699246063 84
643708562706931930 87
643708562714617797 80
643708562722303664 164
643708562729989531 274
643708562737675398 298
643708562745361265 332
643708562753047132 366
643708562760732999 366
643708562768418866 380
643708562776104733 322
643708562783790600 160
643708562791476467 53
643708562799162334 7
643708562806848201 -118
643708562814534068 -242
643708562822219935 -254
643708562829905802 -252
643708562837591669 -283
643708562845277588 -281
643708562852963455 -247
643708562860649322 -220
643708562868335189 -237
643708562876021056 -271
643708562883706923 -264
643708562891392790 -225
643708562899078657 -186
643708562906764524 -203
643708562914450391 -252
643708562922136258 -218
643708562929822125 -191
643708562937507992 -218
643708562945193859 -155
643708562952879726 -138
643708562960565593 -232
643708562968251460 -213
643708562975937327 -123
643708562983623194 -143
643708562991309061 -198
643708562998994928 -169
643708563006680795 -140
643708563014366662 -184
643708563022052529 -147
643708563029738396 -72
643708563037424263 -155
643708563045110130 -201
643708563052795997 -116
643708563060481864 -99
643708563068167731 -152
643708563075853598 -179
643708563083539465 -118
643708563091225332 -53
643708563098911199 -113
643708563106597066 -174
643708563114282933 -138
643708563121968800 -113
643708563129654667 -123
643708563137340534 -118
643708563145026401 -106
643708563152712268 -140
643708563160398135 -169
643708563168084002 -97
643708563175769869 -55
643708563183455736 -135
643708563191141603 -162
643708563198827470 -111
643708563206513337 -111
643708563214199204 -152
643708563221885071 -128
643708563229570938 -87
643708563237256805 -135
643708563244942672 -164
643708563252628539 -77
643708563260314406 -43
643708563268000273 -92
643708563275686140 -63
643708563283372007 -53
643708563291057874 -118
643708563298743741 -111
643708563306429608 -63
643708563314115475 -80
643708563321801342 -118
643708563329487209 -128
643708563337173076 -123
643708563344858943 -50
643708563352544810 261
643708563360230677 885
643708563367916544 1530
643708563375602411 1573
643708563383288278 691
643708563390974145 -271
643708563398660012 -358
643708563406315835 -99
643708563414002120 -181
643708563421688405 -278
643708563429374690 -227
643708563437060975 -201
643708563444747260 -181
643708563452433545 -172
643708563460119830 -150
643708563467806115 -116
643708563475492400 -160
643708563483178685 -172
643708563490864970 -109
643708563498551255 -82
643708563506237540 -84
643708563513923825 -109
643708563521610110 -106
643708563529296395 -41
643708563536982680 -41
643708563544668965 -48
643708563552355250 4
643708563560041535 38
643708563567727820 101
643708563575414105 155
643708563583100390 126
643708563590786675 179
643708563598472960 293
643708563606159245 344
643708563613845530 392
643708563621531815 441
643708563629218100 429
643708563636904385 395
643708563644590670 307
643708563652276955 111
643708563659963240 -2
643708563667649525 12
643708563675335810 -106
643708563683022095 -242
643708563690708380 -215
643708563698394665 -247
643708563706080950 -329
643708563713767235 -259
643708563721453520 -198
643708563729139805 -298
643708563736826090 -322
643708563744512375 -210
643708563752198660 -186
643708563759884945 -247
643708563767571230 -218
643708563775257515 -167
643708563782943800 -210
643708563790630085 -261
643708563798316370 -218
643708563806002655 -150
643708563813688940 -135
643708563821375225 -157
643708563829061510 -172
643708563836747795 -172
643708563844434080 -164
643708563852120365 -152
643708563859806650 -140
643708563867492935 -150
643708563875179220 -157
643708563882865505 -109
643708563890551790 -133
643708563898238075 -220
643708563905924360 -167
643708563913610645 -87
643708563921296930 -138
643708563928983215 -157
643708563936669500 -63
643708563944355785 -58
643708563952042070 -162
643708563959728355 -164
643708563967414696 -80
643708563975100981 -65
643708563982787266 -123
643708563990473551 -104
643708563998159836 -14
643708564005846121 -48
643708564013532406 -143
643708564021218691 -126
643708564028904976 -101
643708564036591261 -97
643708564044277546 -55
643708564051963831 -92
643708564059650116 -106
643708564067336401 -50
643708564075022686 -84
643708564082708971 -123
643708564090395256 -106
643708564098081541 -97
643708564105767826 -36
643708564113454111 -2
643708564121140396 -41
643708564128826681 -31
643708564136512966 -43
643708564144199251 -118
643708564151885536 -84
643708564159571821 -12
643708564167258106 -31
643708564174944391 -87
643708564182630676 -113
643708564190316961 -21
643708564198003246 337
643708564205689531 950
643708564213375816 1457
643708564221062101 1467
643708564228748386 783
643708564236434671 -172
643708564244120956 -453
643708564251807241 -135
643708564259493526 -67
643708564267179811 -196
643708564274866096 -155
643708564282552381 -130
643708564290238666 -138
643708564297924951 -84
643708564305611236 -128
643708564313297521 -160
643708564320983806 -60
643708564328670091 -48
643708564336356376 -126
643708564344042661 -87
643708564351728946 -4
643708564359415231 2
643708564367101516 -33
643708564374787801 -31
643708564382474086 36
643708564390160371 24
643708564397846656 -12
643708564405532941 104
643708564413219226 181
643708564420905511 128
643708564428591796 164
643708564436278081 307
643708564443964366 385
643708564451650651 378
643708564459336936 409
643708564467023221 482
643708564474709506 460
643708564482395791 412
643708564490082076 388
643708564497768361 240
643708564505454646 63
643708564513140931 -14
643708564520827216 -92
643708564528543657 -196
643708564536229524 -252
643708564543915391 -218
643708564551601258 -128
643708564559287125 -160
643708564566972992 -307
643708564574658859 -274
643708564582344726 -164
643708564590030593 -235
643708564597716460 -244
643708564605402327 -143
643708564613088194 -155
643708564620774061 -220
643708564628459928 -220
643708564636145795 -198
643708564643831662 -198
643708564651517529 -172
643708564659203396 -164
643708564666889263 -194
643708564674575130 -140
643708564682260997 -101
643708564689946864 -184
643708564697632731 -194
643708564705318598 -109
643708564713004465 -140
643708564720690332 -184
643708564728376199 -94
643708564736062066 -70
643708564743747933 -189
643708564751433800 -235
643708564759119667 -130
643708564766805534 -67
643708564774491401 -126
643708564782177268 -150
643708564789863135 -104
643708564797549002 -109
643708564805234869 -155
643708564812920736 -157
643708564820606603 -135
643708564828292470 -128
643708564835978337 -111
643708564843664204 -101
643708564851350071 -113
643708564859035938 -101
643708564866721805 -99
643708564874407672 -123
643708564882093539 -143
643708564889779406 -157
643708564897465273 -147
643708564905151140 -111
643708564912837007 -106
643708564920522874 -94
643708564928208741 -104
643708564935894608 -169
643708564943580475 -167
643708564951266342 -111
643708564958952209 -87
643708564966638076 -60
643708564974323943 -58
643708564982009810 -75
643708564989695677 -46
643708564997381544 -75
643708565005067411 -111
643708565012753278 -16
643708565020439145 -9
643708565028125012 -97
643708565035810879 -77
643708565043496746 -50
643708565051182613 -70
643708565058868480 99
643708565066554347 611
643708565074240214 1275
643708565081926081 1709
643708565089612000 1401
643708565097297867 349
643708565104983734 -354
643708565112669601 -201
643708565120355468 -21
643708565128041335 -133
643708565135727202 -133
643708565143413069 -55
643708565151098936 -84
643708565158784803 -104
643708565166470670 -104
643708565174156537 -135
643708565181842404 -77
643708565189528271 -4
643708565197214138 -53
643708565204900005 -99
643708565212585872 -60
643708565220271739 -38
643708565227957606 -53
643708565235643473 9
643708565243329340 65
643708565251015207 -4
643708565258701074 -43
643708565266386941 48
643708565274072808 145
643708565281758675 160
643708565289444542 179
643708565297130409 247
643708565304816276 261
643708565312502143 322
643708565320188010 436
643708565327873877 414
643708565335559744 412
643708565343245611 465
643708565350931478 390
643708565358617345 293
643708565366303212 186
643708565373989079 9
643708565381674946 -118
643708565389360813 -140
643708565397046680 -126
643708565404732547 -145
643708565412418414 -235
643708565420104281 -278
643708565427790148 -232
643708565435476015 -227
643708565443161882 -227
643708565450847749 -157
643708565458533616 -181
643708565466219483 -232
643708565473905350 -189
643708565481591217 -230
643708565489277084 -259
643708565496962951 -135
643708565504648818 -111
643708565512334685 -164
643708565520020552 -135
643708565527706419 -157
643708565535392286 -181
643708565543078153 -121
643708565550764020 -116
643708565558449887 -167
643708565566135754 -186
643708565573821621 -113
643708565581507488 -63
643708565589193355 -138
643708565596879222 -177
643708565604565089 -167
643708565612250956 -152
643708565619936823 -99
643708565627622690 -101
643708565635308557 -109
643708565642994424 -94
643708565650680343 -162
643708565658366210 -203
643708565666052077 -80
643708565673737944 -26
643708565681423811 -157
643708565689109678 -194
643708565696795545 -99
643708565704481412 -67
643708565712167279 -123
643708565719853146 -147
643708565727539013 -121
643708565735224880 -135
643708565742910747 -152
643708565750596614 -97
643708565758282481 -84
643708565765968348 -116
643708565773654215 -99
643708565781340082 -101
643708565789025949 -121
643708565796711816 -99
643708565804397683 -58
643708565812083550 -26
643708565819769417 -87
643708565827455284 -145
643708565835141151 -77
643708565842827018 -16
643708565850512885 -33
643708565858198752 -24
643708565865884619 36
643708565873570486 24
643708565881256353 -46
643708565888942220 -33
643708565896628087 -14
643708565904313954 -48
643708565911999821 -16
643708565919685688 7
643708565927371555 -36
643708565935057422 -50
643708565942743289 21
643708565950429156 371
643708565958115023 1079
643708565965800890 1729
643708565973486757 1651
643708565981172624 698
643708565988858491 -196
643708565996544358 -242
643708566004230225 -19
643708566011916092 -113
643708566019601959 -198
643708566027287826 -113
643708566034973693 -101
643708566042659560 -145
643708566050345427 -135
643708566058031294 -150
643708566065717161 -184
643708566073403028 -167
643708566081088895 -121
643708566088774762 -92
643708566096460629 -116
643708566104146496 -116
643708566111832363 -48
643708566119518230 -38
643708566127204097 -97
643708566134889964 -72
643708566142575831 21
643708566150261698 14
643708566157947565 -26
643708566165633432 84
643708566173319299 210
643708566181005166 208
643708566188691033 189
643708566196376900 242
643708566204062767 332
643708566211718590 351
643708566219404875 322
643708566227091160 395
643708566234777445 441
643708566242463730 307
643708566250150015 164
643708566257836300 60
643708566265522585 -80
643708566273208870 -135
643708566280895155 -145
643708566288581440 -215
643708566296267725 -218
643708566303954010 -220
643708566311640295 -320
643708566319326580 -276
643708566327012865 -177
643708566334699150 -230
643708566342385435 -264
643708566350071720 -208
643708566357758005 -201
643708566365444290 -252
643708566373130575 -235
643708566380816860 -160
643708566388503145 -164
643708566396189430 -240
643708566403875715 -227
643708566411562000 -160
643708566419248285 -162
643708566426934570 -174
643708566434620855 -157
643708566442307140 -150
643708566449993425 -106
643708566457679710 -106
643708566465365995 -164
643708566473052280 -133
643708566480738565 -111
643708566488424850 -164
643708566496111135 -128
643708566503797420 -82
643708566511483705 -152
643708566519169990 -186
643708566526856275 -123
643708566534542560 -80
643708566542228845 -99
643708566549915130 -135
643708566557601415 -135
643708566565287700 -111
643708566572973985 -109
643708566580660270 -106
643708566588346555 -116
643708566596032840 -133
643708566603719125 -97
643708566611405410 -65
643708566619091695 -113
643708566626777980 -150
643708566634464265 -87
643708566642150550 -33
643708566649836835 -80
643708566657523120 -135
643708566665209405 -109
643708566672895690 -60
643708566680581975 -65
643708566688268260 -99
643708566695954545 -77
643708566703640830 -58
643708566711327115 -101
643708566719013400 -128
643708566726699685 -116
643708566734385970 -101
643708566742072255 -89
643708566749758540 -77
643708566757444825 -87
643708566765131110 -97
643708566772847547 -99
643708566780533414 -75
643708566788219281 19
643708566795905148 31
643708566803591015 -92
643708566811276882 -87
643708566818962749 -38
643708566826648616 -135
643708566834334483 -87
643708566842020350 55
643708566849706217 -41
643708566857392084 -155
643708566865077951 -116
643708566872763818 -26
643708566880449685 344
643708566888135552 1081
643708566895821419 1687
643708566903507286 1549
643708566911193153 586
643708566918879020 -244
643708566926564887 -286
643708566934250754 -162
643708566941936621 -201
643708566949622488 -160
643708566957308355 -130
643708566964994222 -203
643708566972680089 -232
643708566980365956 -181
643708566988051823 -143
643708566995737690 -143
643708567003423557 -128
643708567011109424 -116
643708567018795291 -152
643708567026481158 -162
643708567034167025 -130
643708567041852892 -89
643708567049538759 -38
643708567057224626 -48
643708567064910493 -82
643708567072596360 -55
643708567080282227 4
643708567087968094 55
643708567095653961 70
643708567103339828 72
643708567111025695 130
643708567118711562 215
643708567126397429 269
643708567134083296 305
643708567141769163 312
643708567149455030 346
643708567157140897 441
643708567164826764 412
643708567172512631 230
643708567180198498 155
643708567187884365 113
643708567195570232 -67
643708567203256099 -157
643708567210941966 -128
643708567218627833 -194
643708567226313700 -300
643708567233999567 -307
643708567241685434 -208
643708567249371301 -155
643708567257057168 -227
643708567264743035 -259
643708567272428902 -206
643708567280114769 -196
643708567287800636 -181
643708567295486503 -140
643708567303172370 -196
643708567310858237 -276
643708567318544104 -213
643708567326229971 -82
643708567333915890 -121
643708567341601757 -194
643708567349287624 -118
643708567356973491 -99
643708567364659358 -172
643708567372345225 -191
643708567380031092 -157
643708567387716959 -164
643708567395402826 -172
643708567403088693 -99
643708567410774560 -113
643708567418460427 -203
643708567426146294 -128
643708567433832161 -21
643708567441518028 -109
643708567449203895 -223
643708567456889762 -160
643708567464575629 -48
643708567472261496 -82
643708567479947363 -164
643708567487633230 -106
643708567495319097 -75
643708567503004964 -143
643708567510690831 -92
643708567518376698 -33
643708567526062565 -94
643708567533748432 -87
643708567541434299 -48
643708567549120166 -138
643708567556806033 -152
643708567564491900 -31
643708567572177767 -7
643708567579863634 -65
643708567587549501 -63
643708567595235368 -33
643708567602921235 -58
643708567610607102 -84
643708567618292969 -48
643708567625978836 -9
643708567633664703 -43
643708567641350570 -26
643708567649036437 -14
643708567656722304 -80
643708567664408171 -53
643708567672094038 -16
643708567679779905 -43
643708567687465772 -50
643708567695151639 -33
643708567702837506 -26
643708567710523373 -58
643708567718209240 -70
643708567725895107 -58
643708567733580974 -94
643708567741266841 -97
643708567748952708 -50
643708567756638575 -65
643708567764324442 -33
643708567772010309 84
643708567779696176 7
643708567787382043 -169
643708567795067910 -106
643708567802753777 33
643708567810439644 14
643708567818125511 -46
643708567825811378 -109
643708567833497245 -162
643708567841183112 -135
643708567848868979 -63
643708567856554846 266
643708567864240713 1042
643708567871926580 1724
643708567879612447 1588
643708567887298314 669
643708567894984237 -201
643708567902670104 -378
643708567910355971 -162
643708567918041838 -145
643708567925727705 -266
643708567933413572 -232
643708567941099439 -167
643708567948785306 -215
643708567956471173 -215
643708567964157040 -177
643708567971842907 -196
643708567979528774 -133
643708567987214641 -94
643708567994900508 -169
643708568002586375 -104
643708568010272242 -60
643708568017958109 -169
643708568025643976 -128
643708568033329843 -38
643708568041015710 -80
643708568048701577 -31
643708568056387444 41
643708568064073311 21
643708568071759178 67
643708568079445045 113
643708568087130912 111
643708568094816779 198
643708568102502646 264
643708568110188513 225
643708568117874380 315
643708568125560247 482
643708568133246114 436
643708568140931981 303
643708568148617848 261
643708568156303715 220
643708568163989582 106
643708568171675449 -14
643708568179361316 -106
643708568187047183 -210
643708568194733050 -276
643708568202418917 -281
643708568210104784 -240
643708568217790651 -208
643708568225476518 -259
643708568233162385 -288
643708568240848252 -210
643708568248534119 -189
643708568256219986 -244
643708568263905853 -201
643708568271591720 -160
643708568279277587 -237
643708568286963454 -307
643708568294649321 -254
643708568302335188 -101
643708568310021055 -46
643708568317706922 -172
643708568325392789 -230
643708568333078656 -121
643708568340764523 -121
643708568348450390 -206
643708568356136257 -123
643708568363822124 -65
643708568371507991 -179
643708568379193858 -169
643708568386879725 -50
643708568394565592 -109
643708568402251459 -162
643708568409937326 -92
643708568417623193 -101
643708568425309060 -128
643708568432994927 -72
643708568440680794 -53
643708568448366661 -135
643708568456037532 -162
643708568463723608 -46
643708568471409684 -41
643708568479095760 -138
643708568486781836 -53
643708568494467912 -9
643708568502153988 -135
643708568509840064 -143
643708568517526140 -99
643708568525212216 -143
643708568532898292 -65
643708568540584368 58
643708568548270444 -48
643708568555956520 -147
643708568563642596 -82
643708568571328672 -75
643708568579014748 -75
643708568586700824 -14
643708568594386900 -38
643708568602072976 -46
643708568609759052 -41
643708568617445128 -133
643708568625131204 -111
643708568632817280 0
643708568640503356 12
643708568648189432 -50
643708568655875508 -135
643708568663561584 -94
643708568671247660 48
643708568678933736 9
643708568686619812 -116
643708568694305888 -111
643708568701991964 -46
643708568709678040 -36
643708568717364116 -48
643708568725050192 33
643708568732736268 50
643708568740422344 -84
643708568748108420 -89
643708568755794496 -14
643708568763480572 -43
643708568771166648 -29
643708568778852724 7
643708568786538800 -60
643708568794224876 -106
643708568801910952 72
643708568809597028 625
643708568817283104 1355
643708568824969180 1731
643708568832655256 1304
643708568840341332 317
643708568848027408 -281
643708568855713484 -203
643708568863399560 -92
643708568871085636 -177
643708568878771712 -225
643708568886457788 -164
643708568894143864 -101
643708568901829940 -157
643708568909516016 -213
643708568917202092 -162
643708568924888168 -118
643708568932574244 -128
643708568940260320 -169
643708568947946396 -181
643708568955632472 -123
643708568963318548 -67
643708568971004624 -24
643708568978690700 -24
643708568986376776 -75
643708568994062852 -104
643708569001748928 -101
643708569009435004 -21
643708569017121136 104
643708569024807212 116
643708569032493288 126
643708569040179364 223
643708569047865440 189
643708569055551516 164
643708569063237592 327
643708569070923668 322
643708569078609744 281
643708569086295820 458
643708569093981896 402
643708569101667972 150
643708569109354048 143
643708569117040124 118
643708569124726200 -87
643708569132412276 -147
643708569140098352 -104
643708569147784428 -206
643708569155470504 -264
643708569163156580 -169
643708569170842656 -162
643708569178528732 -189
643708569186214808 -143
643708569193900884 -145
643708569201586960 -184
643708569209273036 -184
643708569216959112 -152
643708569224645188 -130
643708569232331264 -126
643708569240017340 -106
643708569247703416 -94
643708569255389492 -89
643708569263075568 -19
643708569270761644 2
643708569278447720 -70
643708569286133796 -84
643708569293819872 -67
643708569301505948 0
643708569309192024 106
643708569316878100 12
643708569324564176 -106
643708569332250252 -50
643708569339936328 -14
643708569347622404 -14
643708569355308480 19
643708569362994556 21
643708569370680632 -4
643708569378366708 -19
643708569386052784 -38
643708569393738860 -53
643708569401424936 -36
643708569409111012 0
643708569416797088 -7
643708569424483164 -46
643708569432169240 -55
643708569439855316 -26
643708569447541392 50
643708569455227468 101
643708569462913544 41
643708569470599620 21
643708569478285696 80
643708569485971772 58
643708569493657848 50
643708569501343924 60
643708569509030000 9
643708569516716076 33
643708569524402152 72
643708569532088228 16
643708569539774304 9
643708569547460380 24
643708569555146456 -16
643708569562832532 -4
643708569570518608 14
643708569578219784 -36
643708569585905651 -29
643708569593591518 -4
643708569601277385 -41
643708569608963252 -38
643708569616649119 -38
643708569624334986 -70
643708569632020853 -70
643708569639706720 -19
643708569647392587 38
643708569655078454 19
643708569662764321 -46
643708569670450188 -70
643708569678136055 -80
643708569685821922 -75
643708569693507789 -4
643708569701193656 -7
643708569708879523 -162
643708569716565390 -223
643708569724251257 106
643708569731937124 771
643708569739622991 1314
643708569747308858 1508
643708569754994725 1181
643708569762680592 283
643708569770366459 -373
643708569778052326 -337
643708569785738193 -189
643708569793424060 -203
643708569801109927 -218
643708569808795794 -213
643708569816481661 -208
643708569824167528 -181
643708569831853395 -203
643708569839539262 -259
643708569847225129 -198
643708569854910996 -104
643708569862596863 -162
643708569870282730 -220
643708569877968597 -140
643708569885654464 -94
643708569893340331 -133
643708569901026198 -172
643708569908712065 -145
643708569916397932 -21
643708569924083799 14
643708569931769666 -104
643708569939455533 -113
643708569947141400 41
643708569954827267 145
643708569962513134 130
643708569970199001 70
643708569977884868 135
643708569985570735 305
643708569993256602 307
643708570000942469 218
643708570008628336 257
643708570016314203 261
643708570024000070 152
643708570031685937 48
643708570039371804 -67
643708570047057671 -162
643708570054743538 -196
643708570062429405 -232
643708570070115272 -278
643708570077801139 -312
643708570085487006 -354
643708570093172873 -380
643708570100858740 -324
643708570108544607 -276
643708570116230474 -322
643708570123916341 -332
643708570131602208 -298
643708570139258031 -305
643708570146944316 -281
643708570154630601 -286
643708570162316886 -300
643708570170003171 -203
643708570177689456 -194
643708570185375741 -317
643708570193062026 -339
643708570200748311 -210
643708570208434596 -130
643708570216120881 -244
643708570223807166 -320
643708570231493451 -215
643708570239179736 -164
643708570246866021 -230
643708570254552306 -288
643708570262238591 -286
643708570269924876 -227
643708570277611161 -150
643708570285297446 -169
643708570292983731 -247
643708570300670016 -223
643708570308356301 -155
643708570316042586 -174
643708570323728871 -252
643708570331415156 -242
643708570339101441 -133
643708570346787726 -140
643708570354474011 -213
643708570362160296 -203
643708570369846581 -203
643708570377532866 -164
643708570385219151 -60
643708570392905436 -92
643708570400591721 -196
643708570408278006 -181
643708570415964291 -147
643708570423650576 -143
643708570431336861 -157
643708570439023146 -150
643708570446709431 -75
643708570454395716 -92
643708570462082001 -162
643708570469768286 -101
643708570477454571 -48
643708570485140856 -109
643708570492827141 -118
643708570500513426 -72
643708570508199711 -109
643708570515885996 -184
643708570523572281 -152
643708570531258566 -43
643708570538944851 -72
643708570546631136 -140
643708570554317421 -94
643708570562003706 -48
643708570569689991 288
643708570577376276 1001
643708570585062561 1389
643708570592748846 1047
643708570600435131 271
643708570608121416 -300
643708570615807701 -332
643708570623493986 -252
643708570631180271 -315
643708570638866556 -252
643708570646552841 -109
643708570654239126 -135
643708570661925411 -184
643708570669611696 -160
643708570677297981 -196
643708570684984266 -203
643708570692670551 -177
643708570700386988 -181
643708570708072855 -101
643708570715758722 -70
643708570723444589 -160
643708570731130456 -116
643708570738816323 -16
643708570746502190 -48
643708570754188057 -72
643708570761873924 -38
643708570769559791 -14
643708570777245658 -2
643708570784931525 12
643708570792617392 60
643708570800303259 172
643708570807989126 242
643708570815674993 225
643708570823360860 276
643708570831046727 356
643708570838732594 354
643708570846418461 339
643708570854104328 322
643708570861790195 218
643708570869476062 29
643708570877161929 -82
643708570884847796 -55
643708570892533663 -99
643708570900219530 -264
643708570907905397 -380
643708570915591264 -402
643708570923277131 -320
643708570930962998 -227
643708570938648865 -305
643708570946334732 -397
643708570954020599 -346
643708570961706466 -283
643708570969392333 -298
643708570977078200 -354
643708570984764067 -332
643708570992449934 -242
643708571000135801 -242
643708571007821668 -281
643708571015507535 -242
643708571023193402 -247
643708571030879269 -329
643708571038565136 -269
643708571046251003 -118
643708571053936870 -174
643708571061622737 -291
643708571069308604 -276
643708571076994471 -252
643708571084680338 -247
643708571092366205 -218
643708571100052072 -189
643708571107737939 -225
643708571115423806 -283
643708571123109673 -235
643708571130795540 -181
643708571138481407 -220
643708571146167274 -235
643708571153853141 -184
643708571161539008 -186
643708571169224875 -230
643708571176910742 -198
643708571184596609 -157
643708571192282476 -181
643708571199968343 -203
643708571207654210 -198
643708571215340077 -177
643708571223025944 -191
643708571230711811 -223
643708571238397678 -172
643708571246083545 -143
643708571253769412 -215
643708571261445255 -223
643708571269131262 -143
643708571276817269 -109
643708571284503276 -152
643708571292189283 -218
643708571299875290 -210
643708571307561297 -167
643708571315247304 -174
643708571322933311 -189
643708571330619318 -196
643708571338305325 -186
643708571345991332 -162
643708571353677339 -150
643708571361363346 -123
643708571369049353 -113
643708571376735360 -145
643708571384421367 -172
643708571392107374 -189
643708571399793381 -174
643708571407479388 -147
643708571415165395 -203
643708571422851402 -264
643708571430537409 -157
643708571438223416 58
643708571445909423 419
643708571453595430 938
643708571461281437 1302
643708571468967444 1069
643708571476653451 247
643708571484339458 -373
643708571492025465 -378
643708571499711472 -264
643708571507397479 -266
643708571515083486 -232
643708571522769493 -208
643708571530455500 -218
643708571538141507 -232
643708571545827514 -276
643708571553513521 -281
643708571561199528 -177
643708571568885535 -138
643708571576571542 -225
643708571584257549 -223
643708571591943556 -150
643708571599629563 -160
643708571607315570 -196
643708571615001577 -160
643708571622687584 -87
643708571630373591 -46
643708571638059598 -48
643708571645745605 -92
643708571653431612 -63
643708571661117619 12
643708571668803626 26
643708571676489633 58
643708571684175640 97
643708571691861647 94
643708571699547654 130
643708571707233661 244
643708571714919668 283
643708571722605675 203
643708571730291682 194
643708571737977689 196
643708571745663696 31
643708571753349703 -111
643708571761035710 -145
643708571768721717 -225
643708571776407724 -274
643708571784093731 -261
643708571791779738 -317
643708571799465745 -395
643708571807151752 -383
643708571814837759 -295
643708571822513764 -283
643708571830199910 -351
643708571837886056 -380
643708571845572202 -363
643708571853258348 -291
643708571860944494 -249
643708571868630640 -315
643708571876316786 -327
643708571884002932 -266
643708571891689078 -240
643708571899375224 -249
643708571907061370 -274
643708571914747516 -305
643708571922433662 -291
643708571930119808 -242
643708571937805954 -247
643708571945492100 -249
643708571953178246 -252
643708571960864392 -283
643708571968550538 -242
643708571976236684 -167
643708571983922830 -240
643708571991608976 -354
643708571999295122 -276
643708572006981268 -184
643708572014667414 -237
643708572022353560 -235
643708572030039706 -196
643708572037725852 -254
643708572045411998 -293
643708572053098144 -232
643708572060784290 -186
643708572068470436 -196
643708572076156582 -174
643708572083842728 -181
643708572091528874 -240
643708572099215020 -242
643708572106901166 -198
643708572114587312 -179
643708572122273458 -181
643708572129959604 -196
643708572137645750 -237
643708572145331896 -232
643708572153018042 -172
643708572160704188 -160
643708572168390334 -174
643708572176076480 -164
643708572183762626 -172
643708572191448772 -155
643708572199134918 -97
643708572206821064 -140
643708572214507210 -220
643708572222193356 -213
643708572229879502 -172
643708572237565648 -169
643708572245251794 -196
643708572252937940 -194
643708572260624086 -186
643708572268310232 -101
643708572275996378 288
643708572283682524 870
643708572291368670 1253
643708572299054816 1125
643708572306740962 395
643708572314427108 -332
643708572322113254 -446
643708572329799400 -283
643708572337485546 -269
643708572345171692 -278
643708572352857838 -232
643708572360543984 -220
643708572368230130 -266
643708572375916276 -286
643708572383622539 -201
643708572391308406 -118
643708572398994273 -160
643708572406680140 -215
643708572414366007 -177
643708572422051874 -145
643708572429737741 -174
643708572437423608 -157
643708572445109475 -65
643708572452795342 -36
643708572460481209 -92
643708572468167076 -106
643708572475852943 -72
643708572483538810 -4
643708572491224677 75
643708572498910544 77
643708572506596411 67
643708572514282278 128
643708572521968145 227
643708572529654012 312
643708572537339879 315
643708572545025746 288
643708572552711613 322
643708572560397480 327
643708572568083347 223
643708572575769214 94
643708572583455081 0
643708572591140948 -116
643708572598826815 -232
643708572606512682 -249
643708572614198549 -257
643708572621884416 -322
643708572629570283 -346
643708572637256150 -327
643708572644942017 -324
643708572652627884 -327
643708572660313751 -320
643708572667999618 -324
643708572675685485 -341
643708572683371352 -300
643708572691057219 -244
643708572698743086 -264
643708572706428953 -278
643708572714114820 -259
643708572721800687 -274
643708572729486554 -288
643708572737172421 -274
643708572744858288 -254
643708572752544155 -232
643708572760230022 -203
643708572767915889 -223
643708572775601756 -259
643708572783287623 -259
643708572790973490 -276
643708572798659357 -281
643708572806345224 -235
643708572814031091 -223
643708572821716958 -208
643708572829402825 -167
643708572837088692 -210
643708572844774559 -271
643708572852460426 -244
643708572860146293 -210
643708572867832160 -194
643708572875518027 -177
643708572883203894 -203
643708572890889761 -225
643708572898575628 -196
643708572906261495 -172
643708572913947362 -179
643708572921633229 -194
643708572929319096 -203
643708572937004963 -198
643708572944660786 -160
643708572952347071 -147
643708572960033356 -189
643708572967719641 -206
643708572975405926 -186
643708572983092211 -169
643708572990778496 -150
643708572998464781 -113
643708573006151066 -99
643708573013837351 -121
643708573021523636 -179
643708573029209921 -191
643708573036896206 -118
643708573044582491 -109
643708573052268776 -155
643708573059955061 -152
643708573067641346 -184
643708573075327631 -274
643708573083013916 -164
643708573090700201 310
643708573098386486 943
643708573106072771 1438
643708573113759056 1387
643708573121445341 572
643708573129131626 -266
643708573136817911 -404
643708573144504196 -237
643708573152190481 -257
643708573159876766 -310
643708573167563051 -329
643708573175249336 -334
643708573182935621 -223
643708573190621906 -172
643708573198308191 -257
643708573205994476 -235
643708573213680761 -189
643708573221367046 -252
643708573229053331 -232
643708573236739616 -150
643708573244425901 -167
643708573252112186 -215
643708573259798471 -206
643708573267484756 -135
643708573275171041 -84
643708573282857326 -143
643708573290543611 -160
643708573298229896 19
643708573305916181 106
643708573313602466 -12
643708573321288751 -16
643708573328975036 118
643708573336661321 186
643708573344347606 174
643708573352033891 160
643708573359720176 218
643708573367406461 293
643708573375092746 237
643708573382779031 121
643708573390465316 65
643708573398151601 -33
643708573405837886 -191
643708573413524171 -249
643708573421210456 -252
643708573428896741 -327
643708573436583026 -354
643708573444269311 -295
643708573451955596 -295
643708573459641881 -346
643708573467328166 -354
643708573475014451 -332
643708573482700736 -320
643708573490387021 -291
643708573498073306 -247
643708573505789743 -259
643708573513475610 -276
643708573521161477 -266
643708573528847344 -276
643708573536533211 -242
643708573544219078 -169
643708573551904945 -194
643708573559590812 -254
643708573567276679 -223
643708573574962546 -196
643708573582648413 -254
643708573590334280 -281
643708573598020147 -189
643708573605706014 -116
643708573613391881 -181
643708573621077748 -227
643708573628763615 -177
643708573636449482 -152
643708573644135349 -189
643708573651821216 -220
643708573659507083 -196
643708573667192950 -143
643708573674878817 -150
643708573682564684 -194
643708573690250551 -177
643708573697936418 -121
643708573705622285 -160
643708573713308152 -206
643708573720994019 -138
643708573728679886 -133
643708573736365753 -196
643708573744051620 -167
643708573751737487 -133
643708573759423354 -174
643708573767109221 -184
643708573774795088 -143
643708573782480955 -138
643708573790166822 -181
643708573797852689 -201
643708573805538556 -164
643708573813224423 -109
643708573820910290 -97
643708573828596157 -116
643708573836282024 -111
643708573843967891 -116
643708573851653758 -138
643708573859339625 -111
643708573867025492 -82
643708573874711359 -106
643708573882397226 -126
643708573890083093 -111
643708573897768960 -109
643708573905454827 -140
643708573913140694 -169
643708573920826561 -116
643708573928512428 164
643708573936198295 717
643708573943884162 1370
643708573951570029 1668
643708573959255896 1088
643708573966941763 26
643708573974627630 -404
643708573982313497 -196
643708573989999364 -169
643708573997685231 -286
643708574005371098 -208
643708574013056965 -160
643708574020742832 -240
643708574028428699 -269
643708574036114566 -213
643708574043800433 -164
643708574051486300 -167
643708574059172167 -167
643708574066827990 -152
643708574074514275 -157
643708574082200560 -145
643708574089886845 -106
643708574097573130 -106
643708574105259415 -147
643708574112945700 -113
643708574120631985 -33
643708574128318270 -36
643708574136004555 -33
643708574143690840 43
643708574151377125 77
643708574159063410 38
643708574166749695 63
643708574174435980 152
643708574182122265 203
643708574189808550 215
643708574197494835 252
643708574205181120 291
643708574212867405 281
643708574220553690 261
643708574228239975 206
643708574235926260 21
643708574243612545 -155
643708574251298830 -181
643708574258985115 -203
643708574266671400 -249
643708574274357685 -223
643708574282043970 -227
643708574289730255 -281
643708574297416540 -271
643708574305102825 -259
643708574312789110 -274
643708574320475395 -227
643708574328161680 -181
643708574335847965 -227
643708574343534250 -254
643708574351220535 -220
643708574358906820 -201
643708574366593105 -215
643708574374279390 -242
643708574381965675 -220
643708574389651960 -169
643708574397338245 -160
643708574405024530 -172
643708574412710815 -196
643708574420397100 -213
643708574428083385 -191
643708574435769670 -186
643708574443455955 -215
643708574451142240 -196
643708574458828525 -160
643708574466514810 -167
643708574474201095 -203
643708574481887380 -189
643708574489573665 -138
643708574497259950 -155
643708574504946235 -184
643708574512632520 -138
643708574520318805 -152
643708574528005090 -235
643708574535691375 -194
643708574543377660 -116
643708574551063945 -184
643708574558750230 -237
643708574566436515 -152
643708574574122800 -133
643708574581809085 -208
643708574589495370 -196
643708574597181655 -123
643708574604867940 -143
643708574612554225 -210
643708574620240510 -184
643708574627956951 -135
643708574635642818 -172
643708574643328685 -215
643708574651014552 -189
643708574658700419 -145
643708574666386286 -143
643708574674072153 -143
643708574681758020 -126
643708574689443887 -123
643708574697129754 -121
643708574704815621 -101
643708574712501488 -121
643708574720187355 -172
643708574727873222 -189
643708574735559089 -164
643708574743244956 -140
643708574750930823 -145
643708574758616690 -186
643708574766302557 -237
643708574773988424 -118
643708574781674291 366
643708574789360158 1076
643708574797046025 1595
643708574804731892 1392
643708574812417759 368
643708574820103626 -465
643708574827789493 -419
643708574835475360 -206
643708574843161227 -307
643708574850847094 -366
643708574858532961 -281
643708574866218828 -259
643708574873904695 -307
643708574881590562 -286
643708574889276429 -244
643708574896962296 -264
643708574904648163 -249
643708574912334030 -210
643708574920019897 -225
643708574927705764 -220
643708574935391631 -177
643708574943077498 -177
643708574950763365 -201
643708574958449232 -167
643708574966135099 -143
643708574973820966 -138
643708574981506833 -82
643708574989192700 -50
643708574996878567 -72
643708575004564434 9
643708575012250301 128
643708575019936168 111
643708575027622035 116
643708575035307902 177
643708575042993769 184
643708575050679636 232
643708575058365503 274
643708575066051370 240
643708575073737237 213
643708575081423104 116
643708575089108971 -70
643708575096794838 -174
643708575104480705 -194
643708575112166572 -240
643708575119852439 -344
643708575127538306 -392
643708575135224173 -315
643708575142910040 -276
643708575150595907 -288
643708575158281774 -281
643708575165967641 -317
643708575173653508 -315
643708575181339375 -261
643708575189025294 -261
643708575196711161 -259
643708575204397028 -276
643708575212082895 -283
643708575219768762 -198
643708575227454629 -162
643708575235140496 -223
643708575242826363 -261
643708575250512230 -242
643708575258198097 -227
643708575265883964 -252
643708575273569831 -264
643708575281255698 -232
643708575288941565 -194
643708575296627432 -179
643708575304313299 -191
643708575311999166 -210
643708575319685033 -206
643708575327370900 -198
643708575335056767 -201
643708575342742634 -181
643708575350428501 -181
643708575358114368 -189
643708575365800235 -162
643708575373486102 -162
643708575381171969 -184
643708575388857836 -164
643708575396543703 -140
643708575404229570 -155
643708575411915437 -177
643708575419601304 -157
643708575427287171 -138
643708575434973038 -157
643708575442658905 -150
643708575450344772 -147
643708575458030639 -184
643708575465716506 -186
643708575473402373 -169
643708575481088240 -174
643708575488774107 -162
643708575496459974 -121
643708575504145841 -72
643708575511831708 -77
643708575519517575 -133
643708575527203442 -150
643708575534889309 -133
643708575542575176 -138
643708575550261043 -160
643708575557946910 -157
643708575565632777 -133
643708575573318644 -116
643708575581004511 -157
643708575588690378 -164
643708575596376245 121
643708575604062112 703
643708575611747979 1251
643708575619433846 1411
643708575627119713 870
643708575634805580 -94
643708575642491447 -489
643708575650177314 -237
643708575657863181 -145
643708575665549048 -225
643708575673234915 -201
643708575680920782 -215
643708575688606649 -247
643708575696292516 -196
643708575703978383 -152
643708575711664250 -152
643708575719350117 -133
643708575727035984 -84
643708575734721851 -82
643708575742407718 -111
643708575750063541 -89
643708575757749826 -50
643708575765436111 -38
643708575773122396 -36
643708575780808681 -31
643708575788494966 -16
643708575796181251 12
643708575803867536 26
643708575811553821 31
643708575819240106 70
643708575826926391 140
643708575834612676 213
643708575842298961 254
643708575849985246 266
643708575857671531 300
643708575865357816 344
643708575873044101 346
643708575880730386 327
643708575888416671 257
643708575896102956 126
643708575903789241 9
643708575911475526 -70
643708575919161811 -150
643708575926848096 -269
643708575934534381 -327
643708575942220666 -259
643708575949906951 -223
643708575957593236 -264
643708575965279521 -281
643708575972965806 -274
643708575980652091 -252
643708575988338376 -240
643708575996024661 -259
643708576003710946 -293
643708576011397231 -252
643708576019083516 -126
643708576026769801 -126
643708576034456086 -215
643708576042142371 -215
643708576049828656 -215
643708576057514941 -208
643708576065201226 -128
643708576072887511 -106
643708576080573796 -174
643708576088260081 -208
643708576095946366 -145
643708576103632651 -89
643708576111318936 -138
643708576119005221 -167
643708576126691506 -145
643708576134377791 -155
643708576142064076 -169
643708576149750361 -152
643708576157436646 -133
643708576165122931 -147
643708576172809216 -167
643708576180495501 -155
643708576188181786 -130
643708576195868071 -128
643708576203554356 -133
643708576211240641 -145
643708576218926926 -164
643708576226613211 -164
643708576234299496 -150
643708576241985781 -147
643708576249672066 -138
643708576257358351 -128
643708576265044636 -152
643708576272730921 -177
643708576280417206 -164
643708576288103491 -155
643708576295789776 -169
643708576303476061 -160
643708576311192498 -130
643708576318878365 -128
643708576326564232 -160
643708576334250099 -143
643708576341935966 -77
643708576349621833 -106
643708576357307700 -172
643708576364993567 -164
643708576372679434 -164
643708576380365301 -162
643708576388051168 -121
643708576395737035 -130
643708576403422902 -210
643708576411108769 -77
643708576418794636 480
643708576426480503 1113
643708576434166370 1442
643708576441852237 1231
643708576449538104 380
643708576457223971 -346
643708576464909838 -344
643708576472595705 -177
643708576480281572 -249
643708576487967439 -322
643708576495653306 -276
643708576503339173 -184
643708576511025040 -157
643708576518710907 -208
643708576526396774 -232
643708576534082641 -215
643708576541768508 -218
643708576549454375 -184
643708576557140242 -123
643708576564826109 -152
643708576572511976 -218
643708576580197843 -201
643708576587883710 -101
643708576595569577 -46
643708576603255444 -97
643708576610941311 -123
643708576618627178 -46
643708576626313045 41
643708576633998912 43
643708576641684779 43
643708576649370646 109
643708576657056513 150
643708576664742380 169
643708576672428247 220
643708576680114114 264
643708576687799981 293
643708576695485848 303
643708576703171715 257
643708576710857582 162
643708576718543449 58
643708576726229316 -31
643708576733915183 -113
643708576741601050 -196
643708576749286917 -259
