timestamp ecg
643213921574902631 5009
643213921582587523 5021
643213921590272415 5030
643213921597957307 5040
643213921605642199 5050
643213921613327091 5064
643213921621011983 5086
643213921628696875 5088
643213921636381767 5090
643213921644066659 5112
643213921651751551 5131
643213921659436443 5136
643213921667121335 5146
643213921674806227 5155
643213921682491119 5136
643213921690176011 5090
643213921697860903 5052
643213921705545795 5018
643213921713230687 4963
643213921720915579 4872
643213921728600471 4773
643213921736285363 4696
643213921743970255 4638
643213921751655147 4600
643213921759340039 4566
643213921767024931 4518
643213921774709823 4492
643213921782394715 4463
643213921790079607 4410
643213921797764499 4376
643213921805449391 4355
643213921813134283 4323
643213921820819175 4299
643213921828504067 4261
643213921836188959 4198
643213921843873851 4150
643213921851558743 4114
643213921859243635 4061
643213921866928527 4001
643213921874613419 3955
643213921882298311 3919
643213921889983203 3883
643213921897668095 3835
643213921905352987 3773
643213921913037879 3710
643213921920722771 3664
643213921928407663 3619
643213921936092555 3568
643213921943777447 3523
643213921951462339 3474
643213921959147231 3431
643213921966832123 3390
643213921974517015 3325
643213921982201907 3265
643213921989886799 3227
643213921997571691 3183
643213922005256583 3140
643213922012941475 3097
643213922020626367 3066
643213922028311259 3051
643213922035996151 3025
643213922043681043 2977
643213922051365935 2929
643213922059050827 2878
643213922066735719 2837
643213922074420611 2808
643213922082105503 2765
643213922089790395 2690
643213922097475287 2618
643213922105160179 2715
643213922112845071 3167
643213922120529963 3816
643213922128214855 4177
643213922135909846 3801
643213922143594598 2791
643213922151279350 2094
643213922158964102 2145
643213922166648854 2267
643213922174333606 2169
643213922182018358 2145
643213922189703110 2171
643213922197387862 2121
643213922205072614 2087
643213922212757366 2096
643213922220442118 2087
643213922228126870 2060
643213922235811622 2044
643213922243496374 2034
643213922251181126 2022
643213922258865878 2012
643213922266550630 2012
643213922274235382 2007
643213922281920134 1991
643213922289604886 1976
643213922297289638 1971
643213922304974390 1976
643213922312659142 1983
643213922320343894 1988
643213922328028646 1988
643213922335713398 1986
643213922343398150 1967
643213922351082902 1928
643213922358767654 1873
643213922366452406 1815
643213922374137158 1762
643213922381821910 1688
643213922389506662 1599
643213922397191414 1519
643213922404876166 1450
643213922412560918 1382
643213922420245670 1329
643213922427930422 1293
643213922435615174 1255
643213922443299926 1221
643213922450984678 1207
643213922458669430 1202
643213922466354182 1187
643213922474038934 1168
643213922481723686 1156
643213922489408438 1154
643213922497093190 1147
643213922504777942 1142
643213922512462694 1127
643213922520147446 1103
643213922527832198 1077
643213922535516950 1058
643213922543201702 1034
643213922550886454 1012
643213922558571206 997
643213922566255958 981
643213922573940710 957
643213922581625462 945
643213922589310214 930
643213922596994966 911
643213922604679718 904
643213922612364470 899
643213922620049222 875
643213922627733974 858
643213922635418726 853
643213922643103478 844
643213922650788230 832
643213922658472982 817
643213922666157734 803
643213922673842486 783
643213922681527238 752
643213922689211990 733
643213922696876719 716
643213922704561750 687
643213922712246781 670
643213922719931812 670
643213922727616843 675
643213922735301874 680
643213922742986905 675
643213922750671936 646
643213922758356967 615
643213922766041998 598
643213922773727029 586
643213922781412060 560
643213922789097091 529
643213922796782122 473
643213922804467153 435
643213922812152184 613
643213922819837215 1161
643213922827522246 1926
643213922835207277 2445
643213922842892308 2029
643213922850577339 829
643213922858262370 139
643213922865947401 276
643213922873632432 351
643213922881317463 223
643213922889002494 247
643213922896687525 303
643213922904372556 274
643213922912057587 276
643213922919742618 290
643213922927427649 281
643213922935112680 286
643213922942797711 310
643213922950482742 324
643213922958167773 334
643213922965852804 334
643213922973537835 324
643213922981222866 329
643213922988907897 353
643213922996592928 377
643213923004277959 399
643213923011962990 418
643213923019648021 435
643213923027333052 452
643213923035018083 471
643213923042703114 488
643213923050388145 497
643213923058073176 485
643213923065758207 459
643213923073443238 428
643213923081128269 387
643213923088813300 336
643213923096498331 286
643213923104183362 221
643213923111868393 163
643213923119553424 129
643213923127238455 91
643213923134923486 62
643213923142608517 64
643213923150293548 67
643213923157978579 50
643213923165663610 33
643213923173348641 38
643213923181033672 38
643213923188718703 31
643213923196403734 31
643213923204088765 38
643213923211773796 36
643213923219458827 24
643213923227143858 16
643213923234828889 21
643213923242513920 24
643213923250198951 26
643213923257878986 28
643213923265564087 26
643213923273249188 21
643213923280934289 21
643213923288619390 26
643213923296304491 16
643213923303989592 7
643213923311674693 12
643213923319359794 21
643213923327044895 26
643213923334729996 38
643213923342415097 50
643213923350100198 62
643213923357785299 74
643213923365470400 86
643213923373155501 88
643213923380840602 91
643213923388525703 96
643213923396210804 96
643213923403895905 108
643213923411581006 125
643213923419266107 125
643213923426951208 125
643213923434636309 134
643213923442321410 129
643213923450006511 115
643213923457691612 110
643213923465376713 96
643213923473061814 76
643213923480746915 69
643213923488432016 57
643213923496117117 4
643213923503802218 -43
643213923511487319 91
643213923519172420 557
643213923526857521 1248
643213923534542622 1784
643213923542227723 1599
643213923549912824 608
643213923557597925 -180
643213923565283026 -165
643213923572968127 -9
643213923580653228 -88
643213923588338329 -96
643213923596023430 -28
643213923603708531 -40
643213923611393632 -45
643213923619078733 -12
643213923626763834 -2
643213923634448935 -4
643213923642134036 9
643213923649819137 28
643213923657504238 48
643213923665189339 64
643213923672874440 69
643213923680559541 76
643213923688244642 101
643213923695929743 129
643213923703614844 156
643213923711299945 187
643213923718985046 211
643213923726670147 245
643213923734355248 295
643213923742040349 331
643213923749725450 336
643213923757410551 339
643213923765095652 336
643213923772780753 327
643213923780465854 305
643213923788150955 257
643213923795836056 204
643213923803521157 156
643213923811206258 103
643213923818871365 52
643213923826556744 19
643213923834242123 -4
643213923841927502 -28
643213923849612881 -40
643213923857298260 -50
643213923864983639 -62
643213923872669018 -79
643213923880354397 -93
643213923888039776 -101
643213923895725155 -103
643213923903410534 -113
643213923911095913 -132
643213923918781292 -141
643213923926466671 -132
643213923934152050 -127
643213923941837429 -129
643213923949522808 -127
643213923957208187 -122
643213923964893566 -117
643213923972578945 -113
643213923980264324 -115
643213923987949703 -108
643213923995635082 -103
643213924003320461 -101
643213924011005840 -84
643213924018691219 -76
643213924026376598 -86
643213924034061977 -86
643213924041747356 -74
643213924049432735 -72
643213924057118114 -81
643213924064803493 -91
643213924072488872 -93
643213924080174251 -96
643213924087859630 -108
643213924095545009 -122
643213924103230388 -132
643213924110915767 -144
643213924118601146 -149
643213924126286525 -129
643213924133971904 -110
643213924141657283 -108
643213924149342662 -105
643213924157028041 -96
643213924164713420 -88
643213924172398799 -101
643213924180084178 -115
643213924187769557 -115
643213924195454936 -108
643213924203140315 -110
643213924210825694 -141
643213924218511073 -197
643213924226196452 -122
643213924233881831 281
643213924241567210 940
643213924249252589 1502
643213924256937968 1428
643213924264623347 553
643213924272308726 -266
643213924279994105 -379
643213924287679484 -269
643213924295364863 -339
643213924303050242 -365
643213924310735621 -307
643213924318421000 -317
643213924326106379 -334
643213924333791758 -305
643213924341477137 -295
643213924349162516 -298
643213924356847895 -271
643213924364533274 -257
643213924372218653 -250
643213924379929158 -223
643213924387614189 -199
643213924395299220 -189
643213924402984251 -177
643213924410669282 -153
643213924418354313 -122
643213924426039344 -91
643213924433724375 -55
643213924441409406 -21
643213924449094437 7
643213924456779468 33
643213924464464499 55
643213924472149530 64
643213924479834561 60
643213924487519592 55
643213924495204623 52
643213924502889654 45
643213924510574685 31
643213924518259716 2
643213924525944747 -33
643213924533629778 -57
643213924541314809 -72
643213924548999840 -86
643213924556684871 -98
643213924564369902 -101
643213924572054933 -101
643213924579739964 -101
643213924587424995 -110
643213924595110026 -120
643213924602795057 -125
643213924610480088 -125
643213924618165119 -125
643213924625850150 -127
643213924633535181 -132
643213924641220212 -137
643213924648905243 -139
643213924656590274 -144
643213924664275305 -141
643213924671960336 -129
643213924679645367 -122
643213924687330398 -125
643213924695015429 -125
643213924702700460 -122
643213924710385491 -120
643213924718070522 -117
643213924725755553 -108
643213924733440584 -101
643213924741125615 -81
643213924748810646 -67
643213924756495677 -64
643213924764180708 -57
643213924771865739 -45
643213924779550770 -38
643213924787235801 -31
643213924794920832 -21
643213924802605863 -16
643213924810290894 -31
643213924817975925 -38
643213924825660956 -36
643213924833345987 -31
643213924841031018 -24
643213924848716049 -12
643213924856401080 4
643213924864086111 24
643213924871771142 38
643213924879456173 26
643213924887141204 4
643213924894826235 0
643213924902511266 7
643213924910196297 9
643213924917881328 4
643213924925566359 -7
643213924933251390 -52
643213924940936469 -60
643213924948621500 177
643213924956306531 694
643213924963991562 1274
643213924971676593 1539
643213924979361624 1029
643213924987046655 50
643213924994731686 -389
643213925002416717 -245
643213925010101748 -216
643213925017786779 -298
643213925025471810 -247
643213925033156841 -214
643213925040841872 -238
643213925048526903 -223
643213925056211934 -197
643213925063896965 -199
643213925071581996 -202
643213925079267027 -189
643213925086952058 -175
643213925094637089 -163
643213925102322120 -144
643213925110007151 -127
643213925117692182 -110
643213925125377213 -84
643213925133062244 -52
643213925140747275 -26
643213925148432306 4
643213925156117337 50
643213925163802368 108
643213925171487399 158
643213925179172430 189
643213925186857461 197
643213925194542492 189
643213925202227523 175
643213925209912554 158
643213925217597585 127
643213925225282616 74
643213925232967647 -4
643213925240652678 -86
643213925248337709 -151
643213925256022740 -209
643213925263707771 -252
643213925271392802 -276
643213925279077833 -288
643213925286762864 -303
643213925294447895 -307
643213925302132926 -303
643213925309817957 -303
643213925317502988 -295
643213925325188019 -283
643213925332873050 -281
643213925340558081 -288
643213925348243112 -281
643213925355928143 -269
643213925363613174 -269
643213925371298205 -271
643213925378983236 -276
643213925386668267 -286
643213925394353298 -286
643213925402038329 -281
643213925409723360 -278
643213925417408391 -278
643213925425093422 -269
643213925432778453 -266
643213925440463484 -266
643213925448148515 -262
643213925455833546 -245
643213925463518577 -235
643213925471203608 -245
643213925478888639 -264
643213925486573670 -274
643213925494258701 -271
643213925501943776 -264
643213925509628807 -259
643213925517313838 -245
643213925524998869 -218
643213925532683900 -192
643213925540368931 -180
643213925548053962 -185
643213925555738993 -192
643213925563424024 -185
643213925571109055 -173
643213925578794086 -173
643213925586479117 -194
643213925594164148 -254
643213925601849179 -262
643213925609534210 50
643213925617219241 726
643213925624904272 1438
643213925632589303 1654
643213925640274334 949
643213925647959365 -117
643213925655644396 -456
643213925663329427 -233
643213925671014458 -226
643213925678699489 -305
643213925686384520 -238
643213925694069551 -206
643213925701754582 -230
643213925709439613 -209
643213925717124644 -185
643213925724809675 -192
643213925732494706 -180
643213925740179737 -158
643213925747864768 -146
643213925755549799 -129
643213925763234830 -110
643213925770919861 -101
643213925778604892 -86
643213925786289923 -62
643213925793974954 -43
643213925801659985 -21
643213925809345016 9
643213925817030047 43
643213925824715078 91
643213925832400109 141
643213925840085140 161
643213925847770171 163
643213925855455202 170
643213925863140233 161
643213925870825264 139
643213925878510295 115
643213925886195326 64
643213925893880357 -9
643213925901565388 -62
643213925909250419 -79
643213925916935450 -98
643213925924620481 -122
643213925932305512 -127
643213925939990543 -125
643213925947675574 -127
643213925955360605 -115
643213925963045636 -98
643213925970730667 -91
643213925978415698 -91
643213925986100729 -81
643213925993785760 -72
643213926001470791 -69
643213926009155822 -62
643213926016840853 -55
643213926024525884 -55
643213926032210915 -50
643213926039895946 -48
643213926047580977 -45
643213926055266008 -38
643213926062951083 -45
643213926070636114 -50
643213926078321145 -38
643213926086006176 -28
643213926093691207 -28
643213926101376238 -36
643213926109061269 -43
643213926116746300 -38
643213926124431331 -36
643213926132116362 -45
643213926139801393 -64
643213926147486424 -79
643213926155171455 -79
643213926162856486 -74
643213926170541517 -84
643213926178226548 -108
643213926185911579 -129
643213926193596610 -134
643213926201281641 -151
643213926208966672 -180
643213926216651703 -185
643213926224336734 -175
643213926232021765 -153
643213926239706796 -113
643213926247391827 -88
643213926255076858 -101
643213926262761889 -115
643213926270446920 -115
643213926278131951 -105
643213926285816982 -98
643213926293502013 -113
643213926301187044 -158
643213926308872075 -202
643213926316557106 -64
643213926324242137 437
643213926331927168 1192
643213926339612199 1786
643213926347297230 1572
643213926354982261 488
643213926362667292 -358
643213926370352323 -363
643213926378037354 -245
643213926385722385 -348
643213926393407416 -363
643213926401092447 -310
643213926408777478 -327
643213926416462509 -327
643213926424147540 -300
643213926431832571 -305
643213926439517602 -307
643213926447202633 -288
643213926454887664 -269
643213926462572695 -250
643213926470257726 -238
643213926477942757 -230
643213926485627788 -209
643213926493312819 -187
643213926500997850 -173
643213926508682881 -149
643213926516367912 -117
643213926524052943 -96
643213926531737974 -64
643213926539423005 -16
643213926547108036 12
643213926554793067 7
643213926562478098 0
643213926570163129 4
643213926577848160 -2
643213926585533191 -28
643213926593218222 -67
643213926600903253 -122
643213926608588284 -175
643213926616273315 -211
643213926623958390 -252
643213926631643421 -290
643213926639328452 -300
643213926647013483 -290
643213926654698514 -288
643213926662383545 -300
643213926670068576 -305
643213926677753607 -288
643213926685438638 -269
643213926693123669 -264
643213926700808700 -259
643213926708493731 -242
643213926716178762 -233
643213926723863793 -230
643213926731548824 -223
643213926739233855 -204
643213926746918886 -192
643213926754603917 -194
643213926762288948 -187
643213926769973979 -177
643213926777659010 -177
643213926785344041 -168
643213926793029072 -146
643213926800714103 -132
643213926808399134 -117
643213926816084165 -103
643213926823769196 -96
643213926831454227 -86
643213926839139258 -76
643213926846824289 -67
643213926854509320 -50
643213926862194351 -43
643213926869879382 -50
643213926877564413 -43
643213926885249444 -36
643213926892934475 -60
643213926900619506 -84
643213926908304537 -88
643213926915989568 -91
643213926923674599 -96
643213926931359630 -98
643213926939044661 -93
643213926946729692 -76
643213926954414723 -62
643213926962099754 -74
643213926969784785 -93
643213926977469816 -108
643213926985154847 -105
643213926992839878 -88
643213927000524909 -81
643213927008209940 -105
643213927015894971 -158
643213927023580002 -134
643213927031265033 161
643213927038950064 726
643213927046635095 1305
643213927054320126 1495
643213927062005157 918
643213927069690188 0
643213927077375219 -348
643213927085060250 -180
643213927092745281 -144
643213927100430312 -218
643213927108115343 -187
643213927115800374 -156
643213927123485405 -163
643213927131170436 -153
643213927138855467 -132
643213927146540498 -125
643213927154225529 -110
643213927161910560 -88
643213927169595591 -76
643213927177280622 -62
643213927184905505 -43
643213927192591372 -16
643213927200277239 9
643213927207963106 33
643213927215648973 60
643213927223334840 81
643213927231020707 113
643213927238706574 163
643213927246392441 214
643213927254078308 240
643213927261764175 254
643213927269450042 266
643213927277135909 264
643213927284821776 245
643213927292507643 214
643213927300193510 175
643213927307879377 120
643213927315565244 52
643213927323251111 -12
643213927330936978 -69
643213927338622845 -117
643213927346308712 -153
643213927353994579 -185
643213927361680446 -199
643213927369366313 -204
643213927377052180 -211
643213927384738047 -211
643213927392423914 -202
643213927400109781 -197
643213927407795648 -194
643213927415481515 -187
643213927423167382 -170
643213927430853249 -149
643213927438539116 -141
643213927446224983 -156
643213927453910850 -163
643213927461596717 -161
643213927469282584 -163
643213927476968451 -168
643213927484654318 -163
643213927492340185 -153
643213927500026052 -153
643213927507711919 -161
643213927515397786 -165
643213927523083653 -175
643213927530769520 -180
643213927538455387 -189
643213927546141254 -204
643213927553827121 -202
643213927561512988 -192
643213927569198855 -202
643213927576884722 -214
643213927584570589 -211
643213927592256456 -209
643213927599942323 -214
643213927607628190 -223
643213927615314057 -230
643213927622999924 -238
643213927630685791 -242
643213927638371658 -245
643213927646057525 -240
643213927653743392 -233
643213927661429259 -216
643213927669115126 -192
643213927676800993 -173
643213927684486860 -173
643213927692172727 -185
643213927699858594 -189
643213927707544461 -194
643213927715230328 -199
643213927722916195 -199
643213927730602062 -209
643213927738287929 -259
643213927746094234 -274
643213927753778429 -45
643213927761462624 519
643213927769146819 1209
643213927776831014 1553
643213927784515209 1058
643213927792199404 60
643213927799883599 -452
643213927807567794 -379
643213927815251989 -351
643213927822936184 -420
643213927830620379 -379
643213927838304574 -346
643213927845988769 -365
643213927853672964 -348
643213927861357159 -315
643213927869041354 -312
643213927876725549 -303
643213927884409744 -269
643213927892093939 -238
643213927899778134 -221
643213927907462329 -197
643213927915146524 -163
643213927922830719 -141
643213927930514914 -125
643213927938199109 -101
643213927945883304 -69
643213927953567499 -38
643213927961251694 2
643213927968935889 48
643213927976620084 84
643213927984304279 108
643213927991988474 127
643213927999672669 134
643213928007356864 120
643213928015041059 101
643213928022725254 86
643213928030409449 69
643213928038093644 33
643213928045777839 -16
643213928053462034 -57
643213928061146229 -88
643213928068830424 -122
643213928076514619 -151
643213928084198814 -168
643213928091883009 -173
643213928099567204 -177
643213928107251399 -175
643213928114935594 -175
643213928122619789 -177
643213928130303984 -175
643213928137988179 -175
643213928145672374 -173
643213928153356569 -165
643213928161040764 -163
643213928168724959 -158
643213928176409154 -151
643213928184093349 -153
643213928191777544 -156
643213928199461739 -149
643213928207145934 -146
643213928214830129 -151
643213928222514324 -151
643213928230198519 -149
643213928237882714 -144
643213928245566909 -127
643213928253251104 -122
643213928260935299 -129
643213928268619494 -127
643213928276303689 -125
643213928283987884 -122
643213928291672079 -117
643213928299356274 -108
643213928306950219 -98
643213928314635668 -101
643213928322321117 -108
643213928330006566 -110
643213928337692015 -113
643213928345377464 -115
643213928353062913 -115
643213928360748362 -108
643213928368433811 -108
643213928376119260 -105
643213928383804709 -76
643213928391490158 -48
643213928399175607 -52
643213928406861056 -74
643213928414546505 -79
643213928422231954 -81
643213928429917403 -86
643213928437602852 -84
643213928445288301 -103
643213928452973750 -158
643213928460659199 -120
643213928468344648 216
643213928476030097 824
643213928483715546 1406
643213928491400995 1493
643213928499086444 747
643213928506771893 -221
643213928514457342 -485
643213928522142791 -307
643213928529828240 -329
643213928537513689 -404
643213928545199138 -353
643213928552884587 -341
643213928560570036 -358
643213928568255485 -331
643213928575940934 -305
643213928583626383 -288
643213928591311832 -262
643213928598997281 -242
643213928606682730 -230
643213928614368179 -211
643213928622053628 -177
643213928629739077 -149
643213928637424526 -127
643213928645109975 -108
643213928652795424 -84
643213928660480873 -57
643213928668166322 -19
643213928675851771 24
643213928683537220 60
643213928691222669 96
643213928698908118 122
643213928706593567 125
643213928714279016 115
643213928721964465 98
643213928729649914 64
643213928737335363 16
643213928745020812 -38
643213928752706261 -96
643213928760391710 -156
643213928768077159 -197
643213928775762608 -223
643213928783448057 -259
643213928791133506 -288
643213928798818955 -278
643213928806504404 -264
643213928814189853 -269
643213928821875302 -269
643213928829560751 -262
643213928837246200 -252
643213928844931649 -242
643213928852617098 -233
643213928860302547 -230
643213928868033188 -228
643213928875718010 -228
643213928883402832 -235
643213928891087654 -242
643213928898772476 -247
643213928906457298 -250
643213928914142120 -250
643213928921826942 -259
643213928929511764 -259
643213928937196586 -254
643213928944881408 -254
643213928952566230 -257
643213928960251052 -259
643213928967935874 -252
643213928975620696 -247
643213928983305518 -252
643213928990990340 -254
643213928998675162 -247
643213929006359984 -240
643213929014044806 -235
643213929021729628 -230
643213929029414450 -228
643213929037099272 -230
643213929044784094 -226
643213929052468916 -209
643213929060153738 -204
643213929067838560 -216
643213929075523382 -221
643213929083208204 -209
643213929090893026 -199
643213929098577848 -185
643213929106262670 -165
643213929113947492 -137
643213929121632314 -110
643213929129317136 -105
643213929137001958 -108
643213929144686780 -103
643213929152371602 -93
643213929160056424 -86
643213929167741246 -81
643213929175426068 -108
643213929183110890 -151
643213929190795712 -28
643213929198480534 413
643213929206165356 1046
643213929213850178 1567
643213929221535000 1464
643213929229219822 569
643213929236904644 -238
643213929244589466 -307
643213929252274288 -173
643213929259959110 -240
643213929267643932 -269
643213929275328754 -223
643213929283013576 -238
643213929290698398 -250
643213929298383220 -218
643213929306068042 -204
643213929313752864 -199
643213929321437686 -187
643213929329122508 -173
643213929336807330 -163
643213929344492152 -151
643213929352176974 -134
643213929359861796 -120
643213929367546618 -105
643213929375231440 -86
643213929382916262 -62
643213929390601084 -24
643213929398285906 21
643213929405970728 67
643213929413655550 110
643213929421340372 144
643213929428995141 170
643213929436680381 189
643213929444365621 197
643213929452050861 187
643213929459736101 175
643213929467421341 146
643213929475106581 98
643213929482791821 52
643213929490477061 14
643213929498162301 -19
643213929505847541 -43
643213929513532781 -57
643213929521218021 -74
643213929528903261 -81
643213929536588501 -79
643213929544273741 -72
643213929551958981 -62
643213929559644221 -52
643213929567329461 -55
643213929575014701 -62
643213929582699941 -55
643213929590385181 -36
643213929598070421 -19
643213929605755661 -14
643213929613440901 -26
643213929621126141 -33
643213929628811381 -33
643213929636496621 -38
643213929644181861 -48
643213929651867101 -62
643213929659552341 -69
643213929667237581 -76
643213929674922821 -91
643213929682608061 -105
643213929690293301 -108
643213929697978541 -115
643213929705663781 -127
643213929713349021 -139
643213929721034261 -149
643213929728719501 -158
643213929736404741 -163
643213929744089981 -158
643213929751775221 -153
643213929759460461 -153
643213929767145701 -146
643213929774830941 -141
643213929782516181 -144
643213929790201421 -129
643213929797886661 -110
643213929805571901 -108
643213929813257141 -110
643213929820942381 -105
643213929828627621 -110
643213929836312861 -117
643213929843998101 -108
643213929851683341 -93
643213929859368581 -81
643213929867053821 -55
643213929874739061 -9
643213929882424301 0
643213929890109541 -31
643213929897794781 -60
643213929905480021 -76
643213929913165261 -86
643213929920850501 -88
643213929928535741 -96
643213929936220981 -139
643213929943906221 -189
643213929951591461 -57
643213929959276701 384
643213929966961941 1017
643213929974647181 1500
643213929982332421 1313
643213929990032754 387
643213929997717785 -353
643213930005402816 -372
643213930013087847 -259
643213930020772878 -334
643213930028457909 -343
643213930036142940 -303
643213930043827971 -322
643213930051513002 -327
643213930059198033 -303
643213930066883064 -305
643213930074568095 -310
643213930082253126 -290
643213930089938157 -271
643213930097623188 -264
643213930105308219 -250
643213930112993250 -226
643213930120678281 -214
643213930128363312 -206
643213930136048343 -187
643213930143733374 -156
643213930151418405 -127
643213930159103436 -96
643213930166788467 -62
643213930174473498 -26
643213930182158529 4
643213930189843560 21
643213930197528591 21
643213930205213622 16
643213930212898653 9
643213930220583684 -7
643213930228268715 -43
643213930235953746 -91
643213930243638777 -137
643213930251323808 -177
643213930259008839 -209
643213930266693870 -235
643213930274378901 -252
643213930282063932 -259
643213930289748963 -257
643213930297433994 -250
643213930305119025 -238
643213930312804056 -226
643213930320489087 -211
643213930328174118 -192
643213930335859149 -173
643213930343544180 -153
643213930351229211 -139
643213930358914242 -127
643213930366599273 -115
643213930374284304 -115
643213930381969335 -117
643213930389654366 -110
643213930397339397 -115
643213930405024428 -122
643213930412709459 -113
643213930420394490 -103
643213930428079521 -120
643213930435764552 -141
643213930443449583 -146
643213930451134614 -153
643213930458819645 -156
643213930466504676 -153
643213930474189707 -158
643213930481874738 -165
643213930489559769 -161
643213930497244800 -156
643213930504929831 -156
643213930512614862 -153
643213930520299893 -146
643213930527984924 -146
643213930535669955 -144
643213930543354986 -137
643213930551040061 -129
643213930558725092 -113
643213930566410123 -108
643213930574095154 -117
643213930581780185 -115
643213930589465216 -103
643213930597150247 -98
643213930604835278 -98
643213930612520309 -88
643213930620205340 -74
643213930627890371 -48
643213930635575402 -21
643213930643260433 -14
643213930650945464 -31
643213930658630495 -45
643213930666315526 -50
643213930674000557 -57
643213930681685588 -57
643213930689370619 -57
643213930697055650 -88
643213930704740681 -88
643213930712425712 132
643213930720110743 630
643213930727795774 1173
643213930735480805 1411
643213930743165836 981
643213930750850867 72
643213930758535898 -413
643213930766220929 -266
643213930773905960 -161
643213930781590991 -228
643213930789276022 -206
643213930796961053 -180
643213930804646084 -199
643213930812331115 -189
643213930820016146 -177
643213930827701177 -185
643213930835386208 -185
643213930843071239 -177
643213930850756270 -177
643213930858441301 -170
643213930866126332 -158
643213930873811363 -156
643213930881496394 -151
643213930889181425 -134
643213930896866456 -115
643213930904551487 -101
643213930912236518 -76
643213930919921549 -43
643213930927606580 -4
643213930935291611 26
643213930942976642 60
643213930950661673 84
643213930958346704 86
643213930966031735 76
643213930973716766 76
643213930981401797 57
643213930989086828 14
643213930996771859 -38
643213931004456890 -88
643213931012141921 -132
643213931019826952 -175
643213931027511983 -204
643213931035197014 -223
643213931042882045 -242
643213931050567076 -250
643213931058252107 -238
643213931065937138 -214
643213931073622169 -206
643213931081307200 -218
643213931088992231 -228
643213931096677262 -218
643213931104362293 -199
643213931112047368 -187
643213931119732399 -194
643213931127417430 -206
643213931135102461 -209
643213931142787492 -204
643213931150472523 -206
643213931158157554 -211
643213931165842585 -214
643213931173527616 -214
643213931181212647 -216
643213931188897678 -221
643213931196582709 -221
643213931204267740 -218
643213931211952771 -218
643213931219637802 -221
643213931227322833 -221
643213931235007864 -221
643213931242692895 -221
643213931250377926 -214
643213931258062957 -204
643213931265747988 -199
643213931273433019 -209
643213931281118050 -218
643213931288803081 -202
643213931296488112 -194
643213931304173143 -204
643213931311858174 -199
643213931319543205 -189
643213931327228236 -199
643213931334913267 -209
643213931342598298 -204
643213931350283329 -202
643213931357968360 -197
643213931365653391 -175
643213931373338422 -149
643213931381023453 -129
643213931388708484 -127
643213931396393515 -137
643213931404078546 -146
643213931411763577 -144
643213931419448608 -132
643213931427133639 -141
643213931434818670 -180
643213931442503701 -221
643213931450188732 -141
643213931457873763 252
643213931465558794 930
643213931473243825 1560
643213931480928856 1575
643213931488613887 702
643213931496298918 -223
643213931503983949 -379
643213931511668980 -209
643213931519354011 -242
643213931527039042 -271
643213931534724073 -202
643213931542409104 -189
643213931550094135 -202
643213931557779166 -175
643213931565464197 -156
643213931573149228 -153
643213931580834259 -141
643213931588519290 -125
643213931596204321 -120
643213931603889352 -125
643213931611574383 -108
643213931619259414 -81
643213931626944445 -64
643213931634629476 -52
643213931642314507 -21
643213931649999538 16
643213931657684569 45
643213931665369600 86
643213931673034591 137
643213931680719901 170
643213931688405211 187
643213931696090521 194
643213931703775831 187
643213931711461141 163
643213931719146451 134
643213931726831761 88
643213931734517071 21
643213931742202381 -55
643213931749887691 -117
643213931757573001 -156
643213931765258311 -170
643213931772943621 -173
643213931780628931 -173
643213931788314241 -170
643213931795999551 -165
643213931803684861 -153
643213931811370171 -137
643213931819055481 -120
643213931826740791 -110
643213931834426101 -101
643213931842111411 -93
643213931849796721 -91
643213931857482031 -84
643213931865167341 -79
643213931872852651 -76
643213931880537961 -76
643213931888223271 -72
643213931895908581 -67
643213931903593891 -62
643213931911279201 -55
643213931918964511 -52
643213931926649821 -55
643213931934335131 -50
643213931942020441 -40
643213931949705751 -38
643213931957391061 -38
643213931965076371 -26
643213931972761681 -12
643213931980446991 -9
643213931988132301 -16
643213931995817611 -14
643213932003502921 -9
643213932011188231 -9
643213932018873541 -7
643213932026558851 -4
643213932034244161 -4
643213932041929471 -12
643213932049614781 -24
643213932057300091 -33
643213932064985401 -45
643213932072670711 -57
643213932080356021 -79
643213932088041331 -105
643213932095726641 -129
643213932103411951 -151
643213932111097261 -173
643213932118782571 -185
643213932126467881 -187
643213932134153191 -177
643213932141838501 -153
643213932149523811 -132
643213932157209121 -110
643213932164894431 -81
643213932172579741 -72
643213932180265051 -88
643213932187950361 -96
643213932195635671 -91
643213932203320981 -81
643213932211006291 -72
643213932218691601 -79
643213932226376911 -132
643213932234072324 -137
643213932241757494 129
643213932249442664 719
643213932257127834 1380
643213932264813004 1649
643213932272498174 1077
643213932280183344 50
643213932287868514 -435
643213932295553684 -322
643213932303238854 -290
643213932310924024 -377
643213932318609194 -348
643213932326294364 -329
643213932333979534 -360
643213932341664704 -353
643213932349349874 -324
643213932357035044 -322
643213932364720214 -317
643213932372405384 -300
643213932380090554 -288
643213932387775724 -281
643213932395460894 -266
643213932403146064 -250
643213932410831234 -235
643213932418516404 -226
643213932426201574 -216
643213932433886744 -197
643213932441571914 -165
643213932449257084 -134
643213932456942254 -101
643213932464627424 -69
643213932472312594 -50
643213932479997764 -45
643213932487682934 -50
643213932495368104 -64
643213932503053274 -81
643213932510738444 -93
643213932518423614 -122
643213932526108784 -182
643213932533793954 -230
643213932541479124 -257
643213932549164294 -293
643213932556849464 -315
643213932564534634 -305
643213932572219804 -312
643213932579904974 -324
643213932587590144 -310
643213932595275314 -295
643213932602960484 -293
643213932610645654 -281
643213932618330824 -264
643213932626015994 -254
643213932633701164 -247
643213932641386334 -238
643213932649071504 -228
643213932656756674 -221
643213932664441844 -211
643213932672127014 -199
643213932679812184 -182
643213932687497354 -173
643213932695182524 -165
643213932702867694 -149
643213932710552864 -125
643213932718238034 -117
643213932725923204 -117
643213932733608374 -103
643213932741293544 -88
643213932748978714 -84
643213932756663884 -86
643213932764349054 -93
643213932772034224 -101
643213932779719394 -103
643213932787404564 -108
643213932795099811 -115
643213932802784842 -125
643213932810469873 -137
643213932818154904 -149
643213932825839935 -153
643213932833524966 -158
643213932841209997 -153
643213932848895028 -137
643213932856580059 -117
643213932864265090 -103
643213932871950121 -88
643213932879635152 -91
643213932887320183 -105
643213932895005214 -96
643213932902690245 -74
643213932910375276 -64
643213932918060307 -62
643213932925745338 -43
643213932933430369 -14
643213932941115400 -7
643213932948800431 -21
643213932956485462 -40
643213932964170493 -55
643213932971855524 -57
643213932979540555 -57
643213932987225586 -60
643213932994910617 -96
643213933002595648 -129
643213933010280679 24
643213933017965710 478
643213933025650741 1034
643213933033335772 1370
643213933041020803 1118
643213933048705834 252
643213933056390865 -401
643213933064075896 -348
643213933071760927 -182
643213933079445958 -221
643213933087130989 -206
643213933094816020 -146
643213933102501051 -153
643213933110186082 -141
643213933117871113 -108
643213933125556144 -115
643213933133241175 -129
643213933140926206 -115
643213933148611237 -105
643213933156296268 -105
643213933163981299 -98
643213933171666330 -96
643213933179351361 -81
643213933187036392 -50
643213933194721423 -31
643213933202406454 -19
643213933210091485 16
643213933217776516 60
643213933225461547 91
643213933233146578 115
643213933240831609 137
643213933248516640 144
643213933256201671 122
643213933263886702 93
643213933271571733 60
643213933279256764 14
643213933286941795 -33
643213933294626826 -84
643213933302311857 -144
643213933309996888 -197
643213933317681919 -233
643213933325366950 -262
643213933333051981 -286
643213933340737012 -286
643213933348422043 -262
643213933356102078 -245
643213933363787179 -228
643213933371472280 -206
643213933379157381 -189
643213933386842482 -168
643213933394527583 -146
643213933402212684 -144
643213933409897785 -144
643213933417582886 -125
643213933425267987 -120
643213933432953088 -132
643213933440638189 -129
643213933448323290 -134
643213933456008391 -146
643213933463693492 -146
643213933471378593 -156
643213933479063694 -180
643213933486748795 -185
643213933494433896 -182
643213933502118997 -194
643213933509804098 -202
643213933517489199 -199
643213933525174300 -197
643213933532859401 -197
643213933540544502 -197
643213933548229603 -194
643213933555914704 -192
643213933563599805 -197
643213933571284906 -204
643213933578970007 -206
643213933586655108 -202
643213933594340209 -197
643213933602025310 -197
643213933609710411 -189
643213933617395512 -185
643213933625080613 -192
643213933632765714 -202
643213933640450815 -206
643213933648135916 -209
643213933655821017 -209
643213933663506118 -199
643213933671191219 -177
643213933678876320 -163
643213933686561421 -146
643213933694246522 -125
643213933701931623 -120
643213933709616724 -139
643213933717301825 -141
643213933724986926 -139
643213933732672027 -146
643213933740357128 -149
643213933748042229 -161
643213933755727330 -223
643213933763412431 -238
643213933771097532 67
643213933778782633 752
643213933786467734 1510
643213933794152835 1743
643213933801837936 1005
643213933809523037 -86
643213933817208138 -459
643213933824893239 -293
643213933832578340 -295
643213933840263441 -365
643213933847948542 -303
643213933855633643 -278
643213933863318744 -288
643213933871003845 -254
643213933878688946 -228
643213933886374047 -214
643213933894059148 -177
643213933901744249 -139
643213933909429350 -117
643213933917094457 -88
643213933924779836 -60
643213933932465215 -48
643213933940150594 -33
643213933947835973 -4
643213933955521352 14
643213933963206731 19
643213933970892110 36
643213933978577489 62
643213933986262868 91
643213933993948247 113
643213934001633626 115
643213934009319005 96
643213934017004384 74
643213934024689763 67
643213934032375142 60
643213934040060521 36
643213934047745900 2
643213934055431279 -38
643213934063116658 -79
643213934070802037 -103
643213934078487416 -117
643213934086172795 -134
643213934093858174 -144
643213934101543553 -137
643213934109228932 -122
643213934116914311 -113
643213934124599690 -93
643213934132285069 -74
643213934139970448 -62
643213934147655827 -48
643213934155341206 -28
643213934163026585 -19
643213934170711964 -14
643213934178397343 -16
643213934186082722 -16
643213934193768101 -12
643213934201453480 -12
643213934209138859 -16
643213934216824238 -16
643213934224509617 -19
643213934232194996 -31
643213934239880375 -33
643213934247565754 -26
643213934255251133 -26
643213934262936512 -31
643213934270621891 -31
643213934278307270 -36
643213934285992649 -38
643213934293678028 -31
643213934301363407 -21
643213934309048786 -12
643213934316734165 -9
643213934324419544 -2
643213934332104923 16
643213934339790302 26
643213934347475681 24
643213934355161060 21
643213934362846439 19
643213934370531818 14
643213934378217197 -2
643213934385902576 -19
643213934393587955 -28
643213934401273334 -40
643213934408958713 -69
643213934416644092 -93
643213934424329471 -98
643213934432014850 -91
643213934439700229 -103
643213934447385608 -113
643213934455070987 -84
643213934462756366 -62
643213934470441745 -79
643213934478127122 -76
643213934485812502 -62
643213934493497882 -72
643213934501183262 -81
643213934508868642 -64
643213934516554022 -57
643213934524239402 -127
643213934531924782 -165
643213934539610162 69
643213934547295542 622
643213934554980922 1267
643213934562666302 1565
643213934570351682 1029
643213934578037062 2
643213934585722442 -459
643213934593407822 -286
643213934601093202 -214
643213934608778582 -281
643213934616463962 -262
643213934624149342 -262
643213934631834722 -300
643213934639520102 -286
643213934647205482 -254
643213934654890862 -266
643213934662576242 -283
643213934670261622 -271
643213934677947002 -252
643213934685632382 -240
643213934693317762 -221
643213934701003142 -209
643213934708688522 -211
643213934716373902 -192
643213934724059282 -161
643213934731744662 -139
643213934739430042 -110
643213934747115422 -69
643213934754800802 -24
643213934762486182 19
643213934770171562 64
643213934777856942 84
643213934785542322 74
643213934793227702 62
643213934800913082 40
643213934808598462 2
643213934816283842 -48
643213934823969222 -115
643213934831654602 -185
643213934839339982 -247
643213934847025362 -295
643213934854710742 -324
643213934862396122 -336
643213934870081502 -351
643213934877766882 -358
643213934885452262 -343
643213934893137642 -327
643213934900823022 -312
643213934908508402 -293
643213934916193782 -286
643213934923879162 -290
643213934931564542 -290
643213934939249922 -271
643213934946935302 -250
643213934954620682 -226
643213934962306062 -209
643213934969991442 -206
643213934977676822 -211
643213934985362202 -206
643213934993047582 -187
643213935000732962 -180
643213935008418342 -192
643213935016103722 -194
643213935023789102 -182
643213935031474482 -168
643213935039179953 -151
643213935046865054 -134
643213935054550155 -127
643213935062235256 -122
643213935069920357 -122
643213935077605458 -132
643213935085290559 -134
643213935092975660 -122
643213935100660761 -122
643213935108345862 -129
643213935116030963 -127
643213935123716064 -132
643213935131401165 -137
643213935139086266 -132
643213935146771367 -125
643213935154456468 -120
643213935162141569 -113
643213935169826670 -93
643213935177511771 -76
643213935185196872 -86
643213935192881973 -101
643213935200567074 -110
643213935208252175 -108
643213935215937276 -93
643213935223622377 -88
643213935231307478 -113
643213935238992579 -165
643213935246677680 -129
643213935254362781 226
643213935262047882 882
643213935269732983 1498
643213935277418084 1572
643213935285103185 750
643213935292788286 -257
643213935300473387 -452
643213935308158488 -216
643213935315843589 -235
643213935323528690 -290
643213935331213791 -216
643213935338898892 -197
643213935346583993 -216
643213935354269094 -189
643213935361954195 -165
643213935369639296 -158
643213935377324397 -141
643213935385009498 -125
643213935392694599 -120
643213935400379700 -103
643213935408064801 -81
643213935415749902 -67
643213935423435003 -43
643213935431120104 -4
643213935438805205 21
643213935446490306 43
643213935454175407 79
643213935461860508 134
643213935469545609 189
643213935477230710 221
643213935484915811 235
643213935492600912 247
643213935500286013 250
643213935507971114 235
643213935515656215 199
643213935523341316 144
643213935531026417 69
643213935538711518 -9
643213935546396619 -86
643213935554081720 -144
643213935561766821 -185
643213935569451922 -218
643213935577137023 -240
643213935584822124 -245
643213935592507225 -245
643213935600197386 -250
643213935607882417 -245
643213935615567448 -235
643213935623252479 -228
643213935630937510 -223
643213935638622541 -216
643213935646307572 -214
643213935653992603 -204
643213935661677634 -185
643213935669362665 -177
643213935677047696 -189
643213935684732727 -187
643213935692417758 -173
643213935700102789 -170
643213935707787820 -170
643213935715472851 -161
643213935723157882 -156
643213935730842913 -153
643213935738527944 -146
643213935746212975 -137
643213935753898006 -125
643213935761583037 -120
643213935769268068 -120
643213935776953099 -122
643213935784638130 -127
643213935792323161 -144
643213935800008192 -156
643213935807693223 -158
643213935815378254 -161
643213935823063285 -168
643213935830748316 -180
643213935838433347 -192
643213935846118378 -206
643213935853803409 -211
643213935861488440 -206
643213935869173471 -204
643213935876858502 -202
643213935884543533 -189
643213935892228564 -156
643213935899913595 -127
643213935907598626 -129
643213935915283657 -146
643213935922968688 -163
643213935930653719 -168
643213935938338750 -168
643213935946023781 -168
643213935953708812 -182
643213935961393843 -240
643213935969078874 -240
643213935976763905 72
643213935984448936 774
643213935992133967 1567
643213935999818998 1825
643213936007504029 1034
643213936015189060 -120
643213936022874091 -485
643213936030559122 -310
643213936038244153 -341
643213936045929184 -420
643213936053614215 -355
643213936061299246 -341
643213936068984277 -363
643213936076669308 -331
643213936084354339 -307
643213936092039370 -310
643213936099724401 -288
643213936107409432 -259
643213936115094463 -242
643213936122779494 -214
643213936130464525 -192
643213936138149556 -185
643213936145834587 -163
643213936153519618 -127
643213936161204693 -101
643213936168889724 -81
643213936176574755 -52
643213936184259786 -14
643213936191944817 28
643213936199629848 67
643213936207314879 101
643213936214999910 122
643213936222684941 134
643213936230369972 137
643213936238055003 129
643213936245740034 105
643213936253425065 62
643213936261110096 9
643213936268795127 -45
643213936276480158 -101
643213936284165189 -144
643213936291850220 -173
643213936299535251 -197
643213936307220282 -211
643213936314905313 -218
643213936322590344 -226
643213936330275375 -230
643213936337960406 -228
643213936345645437 -211
643213936353330468 -197
643213936361015499 -187
643213936368700530 -175
643213936376385561 -158
643213936384070592 -146
643213936391755623 -137
643213936399440654 -129
643213936407125685 -132
643213936414810716 -125
643213936422495747 -103
643213936430180778 -86
643213936437865809 -84
643213936445550840 -86
643213936453235871 -81
643213936460920902 -69
643213936468605933 -64
643213936476290964 -62
643213936483975995 -55
643213936491661026 -48
643213936499346057 -43
643213936507031088 -31
643213936514716119 -26
643213936522401150 -33
643213936530086181 -36
643213936537771212 -28
643213936545456243 -31
643213936553141274 -38
643213936560826305 -43
643213936568511336 -48
643213936576196367 -57
643213936583881398 -67
643213936591566429 -76
643213936599251460 -67
643213936606936491 -43
643213936614621522 -21
643213936622306553 4
643213936629991584 21
643213936637676615 7
643213936645361646 -14
643213936653046677 -31
643213936660731708 -43
643213936668416739 -40
643213936676101770 -45
643213936683786801 -84
643213936691471832 -146
643213936699156863 -113
643213936706841894 242
643213936714526925 961
643213936722181904 1692
643213936729867353 1777
643213936737552802 829
643213936745238251 -266
643213936752923700 -468
643213936760609149 -254
643213936768294598 -317
643213936775980047 -394
643213936783665496 -319
643213936791350945 -303
643213936799036394 -319
643213936806721843 -286
643213936814407292 -266
643213936822092741 -264
643213936829778190 -238
643213936837463639 -216
643213936845149088 -202
643213936852834537 -175
643213936860519986 -156
643213936868205435 -144
643213936875890884 -117
643213936883576333 -93
643213936891261782 -67
643213936898947231 -38
643213936906632680 -2
643213936914318129 48
643213936922003578 84
643213936929689027 101
643213936937374476 115
643213936945059925 122
643213936952745374 105
643213936960430823 76
643213936968116272 45
643213936975801721 -2
643213936983487170 -60
643213936991172619 -127
643213936998858068 -197
643213937006543517 -240
643213937014228966 -266
643213937021914415 -298
643213937029599864 -315
643213937037285313 -310
643213937044970762 -315
643213937052656211 -327
643213937060341660 -322
643213937068027109 -315
643213937075712558 -300
643213937083398007 -283
643213937091083456 -283
643213937098768905 -293
643213937106454354 -286
643213937114139803 -264
643213937121825252 -254
643213937129510701 -254
643213937137196150 -247
643213937144881599 -235
643213937152567048 -235
643213937160252497 -233
643213937167937946 -221
643213937175623395 -221
643213937183308844 -226
643213937190994293 -218
643213937198679742 -206
643213937206365191 -204
643213937214050640 -202
643213937221736089 -202
643213937229421538 -194
643213937237106987 -180
643213937244792436 -168
643213937252477885 -170
643213937260163334 -165
643213937267848783 -146
643213937275534232 -137
643213937283249825 -132
643213937290934856 -127
643213937298619887 -122
643213937306304918 -115
643213937313989949 -120
643213937321674980 -132
643213937329360011 -139
643213937337045042 -127
643213937344730073 -103
643213937352415104 -76
643213937360100135 -45
643213937367785166 -19
643213937375470197 -16
643213937383155228 -28
643213937390840259 -36
643213937398525290 -36
643213937406210321 -31
643213937413895352 -24
643213937421580383 -31
643213937429265414 -79
643213937436950445 -108
643213937444635476 86
643213937452320507 670
643213937460005538 1469
643213937467690569 1962
643213937475375600 1507
643213937483060631 319
643213937490745662 -360
643213937498430693 -242
643213937506115724 -175
643213937513800755 -307
643213937521485786 -283
643213937529170817 -226
643213937536855848 -254
643213937544540879 -264
643213937552225910 -235
643213937559910941 -223
643213937567595972 -211
643213937575281003 -199
643213937582966034 -180
643213937590651065 -146
643213937598336096 -120
643213937606021127 -103
643213937613706158 -81
643213937621391189 -48
643213937629076220 -12
643213937636761251 19
643213937644446282 50
643213937652131313 103
643213937659816344 165
643213937667501375 209
643213937675186406 235
643213937682871437 257
643213937690556468 262
643213937698241499 257
643213937705926530 252
643213937713611561 233
643213937721296592 187
643213937728981623 134
643213937736666654 81
643213937744351685 24
643213937752036716 -24
643213937759721747 -43
643213937767406778 -57
643213937775091809 -69
643213937782776840 -67
643213937790461871 -62
643213937798146902 -57
643213937805831933 -55
643213937813516964 -60
643213937821201995 -57
643213937828887026 -43
643213937836572057 -38
643213937844227036 -45
643213937851912485 -55
643213937859597934 -69
643213937867283383 -81
643213937874968832 -91
643213937882654281 -105
643213937890339730 -120
643213937898025179 -134
643213937905710628 -153
643213937913396077 -170
643213937921081526 -182
643213937928766975 -199
643213937936452424 -204
643213937944137873 -199
643213937951823322 -192
643213937959508771 -185
643213937967194220 -165
643213937974879669 -149
643213937982565118 -141
643213937990250567 -134
643213937997936016 -127
643213938005621465 -120
643213938013306914 -108
643213938020992363 -103
643213938028677812 -101
643213938036363261 -79
643213938044048710 -55
643213938051734159 -40
643213938059419608 -43
643213938067105057 -55
643213938074790506 -64
643213938082475955 -69
643213938090161404 -79
643213938097846853 -91
643213938105532302 -91
643213938113217751 -84
643213938120903200 -96
643213938128588649 -86
643213938136274098 -64
643213938143959547 -81
643213938151644996 -110
643213938159330445 -122
643213938167015894 -113
643213938174701343 -105
643213938182386792 -120
643213938190072241 -151
643213938197757690 -197
643213938205443139 -125
643213938213128588 264
643213938220814037 894
643213938228499486 1464
643213938236184935 1447
643213938243870384 553
643213938251555833 -360
643213938259241282 -454
643213938266926731 -252
643213938274612180 -300
643213938282297629 -329
643213938289983078 -254
643213938297668527 -254
643213938305353976 -276
643213938313039425 -245
643213938320724874 -223
643213938328410323 -226
643213938336095772 -221
643213938343781221 -211
643213938351466670 -199
643213938359152119 -185
643213938366837568 -170
643213938374523017 -156
643213938382208466 -141
643213938389893915 -117
643213938397579364 -84
643213938405294961 -50
643213938412979992 -12
643213938420665023 45
643213938428350054 98
643213938436035085 132
643213938443720116 153
643213938451405147 161
643213938459090178 146
643213938466775209 127
643213938474460240 103
643213938482145271 69
643213938489830302 24
643213938497515333 -33
643213938505200364 -96
643213938512885395 -144
643213938520570426 -182
643213938528255457 -214
643213938535940488 -228
643213938543625519 -228
643213938551310550 -218
643213938558995581 -204
643213938566680612 -194
643213938574365643 -185
643213938582050674 -170
643213938589735705 -156
643213938597420736 -149
643213938605105767 -149
643213938612790798 -153
643213938620475829 -158
643213938628160860 -165
643213938635845891 -173
643213938643530922 -173
643213938651215953 -175
643213938658900984 -180
643213938666586015 -180
643213938674271046 -182
643213938681956077 -173
643213938689641108 -156
643213938697326139 -153
643213938705011170 -158
643213938712696201 -146
643213938720381232 -127
643213938728066263 -115
643213938735751294 -105
643213938743436325 -101
643213938751121356 -103
643213938758806387 -96
643213938766491418 -84
643213938774176449 -84
643213938781861480 -81
643213938789546511 -74
643213938797231542 -74
643213938804916573 -81
643213938812601604 -76
643213938820286635 -62
643213938827971666 -52
643213938835656697 -28
643213938843341728 0
643213938851026759 2
643213938858711790 -12
643213938866396821 -16
643213938874081852 -26
643213938881766883 -40
643213938889451914 -31
643213938897136945 -24
643213938904821976 -67
643213938912507007 -125
643213938920192038 -38
643213938927877069 372
643213938935562100 1041
643213938943247131 1611
643213938950932162 1536
643213938958617193 591
643213938966272172 -317
643213938973957621 -375
643213938981643070 -175
643213938989328519 -240
643213938997013968 -271
643213939004699417 -206
643213939012384866 -218
643213939020070315 -240
643213939027755764 -230
643213939035441213 -238
643213939043126662 -245
643213939050812111 -230
643213939058497560 -216
643213939066183009 -211
643213939073868458 -202
643213939081553907 -182
643213939089239356 -158
643213939096924805 -129
643213939104610254 -103
643213939112295703 -64
643213939119981152 -24
643213939127666601 19
643213939135352050 72
643213939143037499 122
643213939150722948 163
643213939158408397 185
643213939166093846 192
643213939173779295 192
643213939181464744 189
643213939189150193 165
643213939196835642 110
643213939204521091 43
643213939212206540 -45
643213939219891989 -134
643213939227577438 -189
643213939235262887 -233
643213939242948336 -271
643213939250633785 -283
643213939258319234 -283
643213939266004683 -288
643213939273690132 -290
643213939281375581 -286
643213939289061030 -281
643213939296746479 -286
643213939304431928 -290
643213939312117377 -286
643213939319802826 -274
643213939327488275 -276
643213939335173724 -281
643213939342859173 -278
643213939350544622 -278
643213939358230071 -281
643213939365915520 -274
643213939373600969 -271
643213939381286418 -271
643213939388971867 -269
643213939396657316 -271
643213939404342765 -264
643213939412028214 -250
643213939419713663 -247
643213939427399112 -252
643213939435084561 -250
643213939442770010 -242
643213939450455459 -233
643213939458140908 -226
643213939465826357 -221
643213939473511806 -218
643213939481197255 -211
643213939488882704 -206
643213939496568153 -216
643213939504253602 -218
643213939511939051 -197
643213939519624500 -189
643213939527340093 -211
643213939535025124 -221
643213939542710155 -204
643213939550395186 -194
643213939558080217 -182
643213939565765248 -146
643213939573450279 -117
643213939581135310 -115
643213939588820341 -120
643213939596505372 -127
643213939604190403 -134
643213939611875434 -127
643213939619560465 -117
643213939627245496 -125
643213939634930527 -153
643213939642615558 -194
643213939650300589 -67
643213939657985620 423
643213939665670651 1151
643213939673355682 1709
643213939681040713 1529
643213939688725744 497
643213939696410775 -358
643213939704095806 -375
643213939711780837 -226
643213939719465868 -315
643213939727150899 -334
643213939734835930 -271
643213939742520961 -276
643213939750205992 -283
643213939757891023 -257
643213939765576054 -238
643213939773261085 -223
643213939780946116 -199
643213939788631147 -180
643213939796316178 -158
643213939804001209 -132
643213939811686240 -115
643213939819371271 -96
643213939827056302 -62
643213939834741333 -24
643213939842426364 12
643213939850111395 40
643213939857796426 72
643213939865481457 113
643213939873166488 168
643213939880851519 214
643213939888536550 240
643213939896221581 250
643213939903906612 242
643213939911591643 223
643213939919276674 202
643213939926961705 165
643213939934646736 105
643213939942331767 38
643213939950016798 -16
643213939957701829 -62
643213939965386860 -101
643213939973071891 -115
643213939980756922 -122
643213939988441953 -125
643213939996126984 -120
643213940003812015 -113
643213940011497046 -105
643213940019182077 -110
643213940026867108 -113
643213940034552139 -88
643213940042237170 -64
643213940049922201 -67
643213940057607232 -79
643213940065292263 -74
643213940072977294 -64
643213940080662325 -64
643213940088347400 -64
643213940096032431 -67
643213940103717462 -81
643213940111402493 -93
643213940119087524 -105
643213940126772555 -122
643213940134457586 -137
643213940142142617 -146
643213940149827648 -161
643213940157512679 -168
643213940165197710 -175
643213940172882741 -189
643213940180567772 -202
643213940188252803 -204
643213940195937834 -197
643213940203622865 -192
643213940211307896 -180
643213940218992927 -175
643213940226677958 -175
643213940234362989 -165
643213940242048020 -149
643213940249733051 -146
643213940257418082 -146
643213940265103113 -149
643213940272788144 -153
643213940280473175 -146
643213940288158206 -113
643213940295843237 -81
643213940303528268 -69
643213940311213299 -55
643213940318898330 -43
643213940326583361 -60
643213940334268392 -88
643213940341953423 -110
643213940349638454 -117
643213940357323485 -117
643213940365008516 -125
643213940372693547 -141
643213940380378578 -192
643213940388063609 -230
643213940395748640 -40
643213940403433671 492
643213940411118702 1173
643213940418803733 1565
643213940426488764 1163
643213940434173795 163
643213940441858826 -430
643213940449543857 -370
643213940457228888 -322
643213940464913919 -416
643213940472598950 -401
643213940480283981 -370
643213940487969012 -396
643213940495654043 -389
643213940503339074 -351
643213940511024105 -339
643213940518709136 -343
643213940526394167 -329
643213940534079198 -303
643213940541764229 -286
643213940549449260 -278
643213940557134291 -264
643213940564819322 -238
643213940572504353 -211
643213940580189384 -192
643213940587874415 -163
643213940595559446 -132
643213940603244477 -103
643213940610929508 -67
643213940618614539 -26
643213940626299570 7
643213940633984601 9
643213940641669632 -7
643213940649354707 -14
643213940657039738 -19
643213940664724769 -45
643213940672409800 -81
643213940680094831 -122
643213940687779862 -168
643213940695464893 -211
643213940703149924 -238
643213940710834955 -252
643213940718519986 -257
643213940726205017 -259
643213940733890048 -254
643213940741575079 -235
643213940749260110 -214
643213940756945141 -192
643213940764630172 -168
643213940772315203 -146
643213940780000234 -132
643213940787685265 -108
643213940795370296 -81
643213940803055327 -74
643213940810740358 -79
643213940818425389 -79
643213940826110420 -84
643213940833795451 -88
643213940841480482 -93
643213940849165513 -101
643213940856850544 -105
643213940864535575 -115
643213940872220606 -137
643213940879905637 -144
643213940887590668 -134
643213940895275699 -137
643213940902960730 -144
643213940910645761 -139
643213940918330792 -129
643213940926015823 -125
643213940933700854 -115
643213940941385885 -101
643213940949070916 -88
643213940956755947 -86
643213940964440978 -76
643213940972126009 -52
643213940979811040 -36
643213940987496071 -48
643213940995181102 -57
643213941002866133 -43
643213941010551164 -31
643213941018236195 -28
643213941025921226 -24
643213941033606257 -14
643213941041291288 12
643213941048976319 36
643213941056661350 40
643213941064346381 28
643213941072031412 14
643213941079716443 2
643213941087401474 -4
643213941095086505 4
643213941102771536 7
643213941110456567 -26
643213941118141598 -38
643213941125826629 153
643213941133511660 620
643213941141196691 1154
643213941148881722 1418
643213941156566753 1038
643213941164251784 156
643213941171936815 -358
643213941179621846 -269
643213941187306877 -182
643213941194991908 -235
643213941202676939 -218
643213941210331920 -189
643213941218017369 -206
643213941225702818 -202
643213941233388267 -180
643213941241073716 -177
643213941248759165 -185
643213941256444614 -177
643213941264130063 -161
643213941271815512 -153
643213941279500961 -158
643213941287186410 -156
643213941294871859 -144
643213941302557308 -129
643213941310242757 -105
643213941317928206 -81
643213941325613655 -57
643213941333299104 -19
643213941340984553 28
643213941348670002 62
643213941356355451 81
643213941364040900 98
643213941371726349 105
643213941379411798 93
643213941387097247 79
643213941394782696 64
643213941402468145 33
643213941410153594 -9
643213941417839043 -62
643213941425524492 -117
643213941433209941 -161
643213941440895390 -189
643213941448580839 -202
643213941456266288 -199
643213941463951737 -192
643213941471637186 -194
643213941479322635 -202
643213941487008084 -197
643213941494693533 -187
643213941502378982 -187
643213941510064431 -189
643213941517749880 -189
643213941525435329 -187
643213941533120778 -187
643213941540806227 -185
643213941548491676 -185
643213941556177125 -192
643213941563862574 -199
643213941571548023 -197
643213941579233472 -197
643213941586918921 -206
643213941594604370 -211
643213941602289819 -214
643213941609975268 -218
643213941617660717 -209
643213941625346166 -204
643213941633031615 -218
643213941640717064 -223
643213941648402513 -211
643213941656087962 -211
643213941663773411 -218
643213941671458860 -214
643213941679144309 -211
643213941686829758 -216
643213941694515207 -218
643213941702200656 -226
643213941709886105 -230
643213941717571554 -223
643213941725257003 -211
643213941732942452 -180
643213941740627901 -151
643213941748313350 -153
643213941755998799 -165
643213941763684248 -161
643213941771399843 -144
643213941779084874 -146
643213941786769905 -165
643213941794454936 -187
643213941802139967 -238
643213941809824998 -221
643213941817510029 146
643213941825195060 880
643213941832880091 1599
643213941840565122 1721
643213941848250153 868
643213941855935184 -204
643213941863620215 -454
643213941871305246 -252
643213941878990277 -293
643213941886675308 -355
643213941894360339 -274
643213941902045370 -250
643213941909730401 -266
643213941917415432 -233
643213941925100463 -204
643213941932785494 -199
643213941940470525 -182
643213941948155556 -156
643213941955840587 -139
643213941963525618 -125
643213941971210649 -105
643213941978895680 -93
643213941986580711 -81
643213941994265742 -62
643213942001950773 -33
643213942009635804 -2
643213942017320835 28
643213942025005866 57
643213942032690897 96
643213942040375928 129
643213942048060959 144
643213942055745990 137
643213942063431021 134
643213942071116052 134
643213942078801083 113
643213942086486114 79
643213942094171145 40
643213942101856176 -16
643213942109541207 -69
643213942117226238 -98
643213942124911269 -122
643213942132596300 -144
643213942140281331 -153
643213942147966362 -151
643213942155651393 -149
643213942163336424 -134
643213942171021455 -117
643213942178706486 -108
643213942186391517 -98
643213942194076548 -86
643213942201761579 -86
643213942209446610 -81
643213942217131641 -69
643213942224816672 -69
643213942232501703 -76
643213942240186734 -72
643213942247871765 -64
643213942255556796 -64
643213942263241827 -72
643213942270926858 -74
643213942278611889 -69
643213942286296920 -64
643213942293981951 -60
643213942301666982 -57
643213942309352013 -60
643213942317037044 -60
643213942324722075 -62
643213942332407150 -64
643213942340092181 -60
643213942347777212 -62
643213942355462243 -64
643213942363147274 -64
643213942370832305 -64
643213942378517336 -64
643213942386202367 -76
643213942393887398 -98
643213942401572429 -110
643213942409257460 -115
643213942416942491 -125
643213942424627522 -132
643213942432312553 -127
643213942439997584 -101
643213942447682615 -88
643213942455367646 -105
643213942463052677 -120
643213942470737708 -127
643213942478422739 -134
643213942486107770 -134
643213942493792801 -132
643213942501477832 -151
643213942509162863 -197
643213942516847894 -137
643213942524532925 238
643213942532217956 918
643213942539902987 1601
643213942547588018 1676
643213942555273049 800
643213942562958080 -192
643213942570643111 -387
643213942578328142 -202
643213942586013173 -242
643213942593698204 -303
643213942601383235 -242
643213942609068266 -226
643213942616753297 -242
643213942624438328 -230
643213942632123359 -221
643213942639808390 -214
643213942647493421 -202
643213942655178452 -194
643213942662863483 -192
643213942670548514 -182
643213942678233545 -165
643213942685918576 -153
643213942693603607 -153
643213942701288638 -134
643213942708973669 -88
643213942716658700 -64
643213942724343731 -64
643213942732028762 -40
643213942739713793 0
643213942747398824 24
643213942755083855 33
643213942762768886 36
643213942770453917 21
643213942778138948 -4
643213942785823979 -33
643213942793509010 -60
643213942801194041 -98
643213942808879072 -151
643213942816564103 -204
643213942824249134 -235
643213942831934165 -257
643213942839619196 -271
643213942847304227 -278
643213942854989258 -283
643213942862674289 -276
643213942870359320 -276
643213942878044351 -278
643213942885729382 -269
643213942893384361 -264
643213942901069810 -264
643213942908755259 -245
643213942916440708 -230
643213942924126157 -228
643213942931811606 -223
643213942939497055 -206
643213942947182504 -192
643213942954867953 -180
643213942962553402 -168
643213942970238851 -161
643213942977924300 -156
643213942985609749 -151
643213942993295198 -144
643213943000980647 -132
643213943008666096 -117
643213943016351545 -103
643213943024036994 -93
643213943031722443 -84
643213943039407892 -69
643213943047093341 -55
643213943054778790 -45
643213943062464239 -36
643213943070149688 -31
643213943077835137 -33
643213943085520586 -28
643213943093206035 -24
643213943100891484 -26
643213943108576933 -24
643213943116262382 -26
643213943123947831 -45
643213943131633280 -50
643213943139318729 -31
643213943147004178 -26
643213943154689627 -52
643213943162375076 -79
643213943170060525 -93
643213943177745974 -103
643213943185431423 -108
643213943193116872 -117
643213943200802321 -149
643213943208487770 -170
643213943216173219 -16
643213943223858668 452
643213943231544117 1098
643213943239229566 1551
643213943246915015 1322
643213943254600464 399
643213943262285913 -283
643213943269971362 -235
643213943277656811 -105
643213943285342260 -192
643213943293027709 -192
643213943300713158 -127
643213943308398607 -137
643213943316084056 -137
643213943323769505 -105
643213943331454954 -98
643213943339140403 -86
643213943346825852 -57
643213943354511301 -40
643213943362196750 -31
643213943369882199 -9
643213943377567648 7
643213943385253097 21
643213943392938546 50
643213943400623995 79
643213943408309444 105
643213943415994893 139
643213943423680342 182
643213943431365791 218
643213943439051240 247
643213943446736689 269
643213943454452282 278
643213943462137313 283
643213943469822344 276
643213943477507375 245
643213943485192406 209
643213943492877437 170
643213943500562468 115
643213943508247499 50
643213943515932530 -9
643213943523617561 -64
643213943531302592 -108
643213943538987623 -132
643213943546672654 -146
643213943554357685 -153
643213943562042716 -161
643213943569727747 -170
643213943577412778 -185
643213943585097809 -192
643213943592782840 -187
643213943600467871 -189
643213943608152902 -189
643213943615837933 -189
643213943623522964 -189
643213943631207995 -182
643213943638893026 -165
643213943646578057 -156
643213943654263088 -153
643213943661948119 -146
643213943669633150 -144
643213943677318181 -141
643213943685003212 -129
643213943692688243 -113
643213943700373274 -110
643213943708058305 -113
643213943715743336 -105
643213943723428367 -96
643213943731113398 -88
643213943738798429 -91
643213943746483460 -105
643213943754168491 -122
643213943761853522 -127
643213943769538553 -120
643213943777223584 -127
643213943784908615 -149
643213943792593646 -161
643213943800278677 -168
643213943807963708 -185
643213943815648739 -187
643213943823333770 -165
643213943831018801 -158
643213943838703832 -168
643213943846388863 -177
643213943854073894 -182
643213943861758925 -182
643213943869443956 -185
643213943877128987 -189
643213943884814018 -216
643213943892499049 -269
643213943900184080 -192
643213943907869111 216
643213943915554142 870
643213943923239173 1426
643213943930924204 1365
643213943938609235 500
643213943946294266 -348
643213943953979297 -476
643213943961664328 -334
643213943969349359 -377
643213943977034390 -408
643213943984719421 -353
643213943992404452 -346
643213944000089483 -348
643213944007774514 -315
643213944015429493 -300
643213944023114942 -298
643213944030800391 -271
643213944038485840 -252
643213944046171289 -247
643213944053856738 -221
643213944061542187 -187
643213944069227636 -168
643213944076913085 -156
643213944084598534 -127
643213944092283983 -88
643213944099969432 -52
643213944107654881 -16
643213944115340330 28
643213944123025779 67
643213944130711228 93
643213944138396677 108
643213944146082126 113
643213944153767575 117
643213944161453024 108
643213944169138473 84
643213944176823922 62
643213944184509371 36
643213944192194820 -9
643213944199880269 -52
643213944207565718 -76
643213944215251167 -98
643213944222936616 -117
643213944230622065 -115
643213944238307514 -108
643213944245992963 -105
643213944253678412 -98
643213944261363861 -101
643213944269049310 -115
643213944276734759 -120
643213944284420208 -113
643213944292105657 -108
643213944299791106 -117
643213944307476555 -127
643213944315162004 -134
643213944322847453 -144
643213944330532902 -149
643213944338218351 -137
643213944345903800 -125
643213944353589249 -120
643213944361274698 -110
643213944368960147 -98
643213944376645596 -86
643213944384331045 -69
643213944392016494 -52
643213944399701943 -52
643213944407387392 -57
643213944415072841 -43
643213944422758290 -28
643213944430443739 -21
643213944438129188 -9
643213944445814637 0
643213944453500086 0
643213944461185535 0
643213944468870984 7
643213944476556433 12
643213944484241882 19
643213944491927331 50
643213944499612780 69
643213944507298229 52
643213944514983678 40
643213944522669127 45
643213944530354576 38
643213944538040025 40
643213944545725474 43
643213944553410923 14
643213944561096372 -36
643213944568781821 7
643213944576467318 331
643213944584152767 906
643213944591838216 1445
643213944599523665 1543
643213944607209114 889
643213944614894563 -24
643213944622580012 -312
643213944630265461 -129
643213944637950910 -120
643213944645636359 -197
643213944653321808 -165
643213944661007257 -151
643213944668692706 -180
643213944676378155 -177
643213944684063604 -165
643213944691749053 -168
643213944699434502 -168
643213944707119951 -161
643213944714805400 -156
643213944722490849 -146
643213944730176298 -132
643213944737861747 -122
643213944745547196 -117
643213944753232645 -98
643213944760918094 -72
643213944768603543 -45
643213944776288992 -14
643213944783974441 21
643213944791659890 60
643213944799345339 96
643213944807030788 127
643213944814716237 144
643213944822401686 139
643213944830087135 127
643213944837772584 125
643213944845458033 103
643213944853143482 60
643213944860828931 21
643213944868514380 -19
643213944876199829 -67
643213944883885278 -110
643213944891570727 -141
643213944899256176 -158
643213944906941625 -165
643213944914627074 -173
643213944922312523 -175
643213944929997972 -177
643213944937683421 -185
643213944945368870 -187
643213944953054319 -175
643213944960739768 -168
643213944968425217 -168
643213944976110666 -163
643213944983796115 -163
643213944991481564 -175
643213944999167013 -182
643213945006852462 -173
643213945014537911 -168
643213945022223360 -175
643213945029908809 -175
643213945037594258 -170
643213945045279707 -177
643213945052965156 -192
643213945060650605 -194
643213945068336054 -189
643213945076021503 -192
643213945083706952 -197
643213945091392401 -197
643213945099077850 -197
643213945106763299 -194
643213945114448748 -192
643213945122134197 -202
643213945129819646 -209
643213945137444955 -204
643213945145131240 -202
643213945152817525 -209
643213945160503810 -202
643213945168190095 -173
643213945175876380 -149
643213945183562665 -151
643213945191248950 -170
643213945198935235 -173
643213945206621520 -158
643213945214307805 -151
643213945221994090 -158
643213945229680375 -192
643213945237366660 -250
643213945245052945 -211
643213945252739230 161
643213945260425515 865
643213945268111800 1534
643213945275798085 1599
643213945283484370 786
643213945291170655 -165
643213945298856940 -389
643213945306543225 -228
643213945314229510 -250
643213945321915795 -288
643213945329602080 -221
643213945337288365 -204
643213945344974650 -214
643213945352660935 -170
643213945360347220 -134
643213945368033505 -125
643213945375719790 -113
643213945383406075 -101
643213945391092360 -88
643213945398778645 -60
643213945406464930 -36
643213945414151215 -26
643213945421837500 -9
643213945429523785 9
643213945437210070 14
643213945444896355 26
643213945452582640 60
643213945460268925 88
643213945467955210 115
643213945475641495 141
643213945483327780 156
643213945491014065 153
643213945498700350 151
643213945506386635 144
643213945514072920 122
643213945521759205 93
643213945529445490 52
643213945537131775 7
643213945544818060 -36
643213945552504345 -64
643213945560190630 -74
643213945567876915 -72
643213945575563200 -76
643213945583249485 -86
643213945590935770 -76
643213945598622055 -57
643213945606308340 -57
643213945613994625 -57
643213945621680910 -38
643213945629367195 -21
643213945637053480 -24
643213945644739765 -24
643213945652426050 -16
643213945660112335 -9
643213945667798620 -7
643213945675484905 -14
643213945683171190 -21
643213945690857475 -26
643213945698543816 -31
643213945706230101 -33
643213945713916386 -33
643213945721602671 -33
643213945729288956 -26
643213945736975241 -21
643213945744661526 -21
643213945752347811 -24
643213945760034096 -24
643213945767720381 -21
643213945775406666 -21
643213945783092951 -28
643213945790779236 -24
643213945798465521 -14
643213945806151806 -21
643213945813838091 -40
643213945821524376 -45
643213945829210661 -55
643213945836896946 -64
643213945844583231 -62
643213945852269516 -62
643213945859955801 -55
643213945867642086 -43
643213945875328371 -60
643213945883014656 -91
643213945890700941 -110
643213945898387226 -113
643213945906073511 -113
643213945913759796 -115
643213945921446081 -134
643213945929132366 -187
643213945936818651 -175
643213945944504936 103
643213945952191221 678
643213945959877506 1317
643213945967563791 1563
643213945975250076 969
643213945982936361 7
643213945990622646 -365
643213945998308931 -228
643213946005995216 -216
643213946013681501 -281
643213946021367786 -233
643213946029054071 -216
643213946036740356 -242
643213946044426641 -238
643213946052112926 -228
643213946059799211 -211
643213946067485496 -182
643213946075171781 -180
643213946082858066 -199
643213946090544351 -197
643213946098230636 -175
643213946105916921 -158
643213946113603206 -149
643213946121289491 -125
643213946128975776 -101
643213946136662061 -79
643213946144348346 -45
643213946152034631 -12
643213946159720916 16
643213946167407201 52
643213946175093486 76
643213946182779771 72
643213946190466056 64
643213946198152341 52
643213946205838626 26
643213946213524911 -4
643213946221211196 -52
643213946228897481 -117
643213946236583766 -168
643213946244270051 -202
643213946251956336 -230
643213946259642677 -250
643213946267328962 -252
643213946275015247 -245
643213946282701532 -238
643213946290387817 -242
643213946298074102 -245
643213946305760387 -238
643213946313446672 -228
643213946321132957 -221
643213946328819242 -218
643213946336505527 -214
643213946344191812 -214
643213946351878097 -211
643213946359564382 -192
643213946367250667 -182
643213946374936952 -194
643213946382623237 -189
643213946390309522 -177
643213946397995807 -180
643213946405682092 -175
643213946413368377 -163
643213946421054662 -165
643213946428740947 -168
643213946436427232 -156
643213946444113517 -149
643213946451799802 -144
643213946459486087 -129
643213946467172372 -113
643213946474858657 -96
643213946482544942 -81
643213946490231227 -64
643213946497917512 -45
643213946505603797 -28
643213946513290082 -19
643213946520976367 -19
643213946528662652 -21
643213946536348937 -28
643213946544035222 -45
643213946551721507 -64
643213946559407792 -76
643213946567094077 -84
643213946574780362 -91
643213946582466647 -81
643213946590152932 -67
643213946597839217 -76
643213946605525502 -98
643213946613211787 -105
643213946620898072 -101
643213946628584357 -91
643213946636270642 -79
643213946643956927 -86
643213946651643212 -132
643213946659329497 -113
643213946667015782 177
643213946674702067 745
643213946682388352 1315
643213946690074637 1464
643213946697760922 856
643213946705447207 -64
643213946713133492 -394
643213946720819777 -204
643213946728506062 -163
643213946736192347 -233
643213946743878632 -189
643213946751564917 -158
643213946759251202 -173
643213946766937487 -161
643213946774623772 -141
643213946782310057 -139
643213946789996342 -127
643213946797682627 -110
643213946805368912 -101
643213946813055197 -88
643213946820741538 -72
643213946828427823 -60
643213946836114108 -36
643213946843800393 -2
643213946851486678 12
643213946859172963 28
643213946866859248 69
643213946874545533 117
643213946882231818 153
643213946889918103 185
643213946897604388 202
643213946905290673 209
643213946912976958 209
643213946920663243 199
643213946928349528 165
643213946936035813 120
643213946943722098 74
643213946951408383 16
643213946959094668 -52
643213946966780953 -108
643213946974467238 -149
643213946982153523 -182
643213946989839808 -202
643213946997526093 -209
643213947005212378 -211
643213947012898663 -218
643213947020584948 -223
643213947028271233 -221
643213947035957518 -214
643213947043643803 -202
643213947051330088 -194
643213947059016373 -187
643213947066702658 -182
643213947074388943 -173
643213947082075228 -161
643213947089761513 -156
643213947097447798 -149
643213947105134083 -141
643213947112820368 -139
643213947120506653 -137
643213947128192938 -137
643213947135879223 -139
643213947143565508 -141
643213947151251793 -137
643213947158938078 -134
643213947166624363 -144
643213947174310648 -151
643213947181996933 -144
643213947189683218 -144
643213947197369503 -151
643213947205055788 -153
643213947212742073 -153
643213947220428358 -163
643213947228114643 -170
643213947235800928 -180
643213947243487213 -194
643213947251173498 -209
643213947258859783 -209
643213947266546068 -199
643213947274232353 -199
643213947281918638 -204
643213947289604923 -182
643213947297291208 -158
643213947304977493 -165
643213947312663778 -180
643213947320350063 -185
643213947328036348 -192
643213947335722633 -194
643213947343408918 -185
643213947351095203 -199
643213947358781488 -257
643213947366467773 -293
643213947374154058 -74
643213947381840399 538
643213947389526684 1320
643213947397212969 1726
643213947404899254 1190
643213947412585539 50
643213947420271824 -519
643213947427958109 -382
643213947435644394 -341
643213947443330679 -437
643213947451016964 -379
643213947458703249 -336
643213947466389534 -365
643213947474075819 -346
643213947481762104 -312
643213947489448389 -307
643213947497134674 -288
643213947504820959 -257
643213947512507244 -235
643213947520193529 -209
643213947527879814 -177
643213947535566099 -153
643213947543252384 -127
643213947550938669 -101
643213947558624954 -72
643213947566311239 -33
643213947573997524 12
643213947581683809 55
643213947589370094 98
643213947597056379 139
643213947604742664 170
643213947612428949 185
643213947620115234 185
643213947627801519 170
643213947635487804 153
643213947643174089 132
643213947650860374 93
643213947658546659 43
643213947666232944 -4
643213947673919229 -50
643213947681605514 -81
643213947689291799 -105
643213947696978084 -132
643213947704664369 -156
643213947712350654 -165
643213947720036939 -177
643213947727723224 -192
643213947735409509 -202
643213947743095794 -204
643213947750782079 -182
643213947758468364 -158
643213947766154649 -144
643213947773840934 -127
643213947781527219 -98
643213947789213504 -84
643213947796899789 -84
643213947804586074 -81
643213947812272359 -79
643213947819958644 -74
643213947827644929 -60
643213947835331214 -43
643213947843017499 -38
643213947850703784 -43
643213947858390069 -36
643213947866076354 -16
643213947873762639 -12
643213947881448924 -21
643213947889135209 -14
643213947896821494 -4
643213947904507779 -4
643213947912194064 -7
643213947919880349 0
643213947927566634 2
643213947935252919 -2
643213947942964316 0
643213947950650253 7
643213947958336190 12
643213947966022127 14
643213947973708064 9
643213947981394001 2
643213947989079938 0
643213947996765875 -2
643213948004451812 -4
643213948012137749 -2
643213948019823686 16
643213948027509623 31
643213948035195560 28
643213948042881497 38
643213948050567434 60
643213948058253371 57
643213948065939308 26
643213948073625245 2
643213948081311182 -12
643213948088997119 -26
643213948096683056 -28
643213948104368993 -36
643213948112054930 -91
643213948119740867 -163
643213948127426804 -67
643213948135112741 382
643213948142798678 1091
643213948150484615 1666
643213948158170552 1502
643213948165856489 505
643213948173542426 -329
643213948181228363 -379
643213948188914300 -247
643213948196600237 -319
643213948204286174 -336
643213948211972111 -281
643213948219658048 -293
643213948227343985 -298
643213948235029922 -264
643213948242715859 -242
643213948250401796 -233
643213948258087733 -206
643213948265773670 -192
643213948273459607 -185
643213948281145544 -161
643213948288831481 -129
643213948296517418 -108
643213948304203355 -93
643213948311889292 -79
643213948319575229 -67
643213948327261166 -57
643213948334947103 -28
643213948342633040 16
643213948350318977 50
643213948358004914 62
643213948365690851 62
643213948373376788 52
643213948381062725 40
643213948388748662 31
643213948396434599 12
643213948404120536 -21
643213948411806473 -67
643213948419492410 -115
643213948427178347 -163
643213948434864284 -204
643213948442550221 -235
643213948450236158 -254
643213948457922095 -264
643213948465608032 -269
643213948473293969 -276
643213948480979906 -281
643213948488665843 -271
643213948496351780 -271
643213948504017662 -276
643213948511703878 -262
643213948519390094 -257
643213948527076310 -269
643213948534762526 -281
643213948542448742 -288
643213948550134958 -283
643213948557821174 -269
643213948565507390 -269
643213948573193606 -269
643213948580879822 -264
643213948588566038 -262
643213948596252254 -250
643213948603938470 -238
643213948611624686 -240
643213948619310902 -240
643213948626997118 -221
643213948634683334 -209
643213948642369550 -202
643213948650055766 -182
643213948657741982 -161
643213948665428198 -158
643213948673114414 -168
643213948680800630 -165
643213948688486846 -149
643213948696173062 -129
643213948703859278 -120
643213948711545494 -120
643213948719231710 -113
643213948726917926 -96
643213948734604142 -64
643213948742290358 -24
643213948749976574 -26
643213948757662790 -50
643213948765349006 -40
643213948773035222 -21
643213948780721438 -14
643213948788407654 -14
643213948796093870 -4
643213948803780086 9
643213948811466302 4
643213948819152518 -4
643213948826838734 -19
643213948834524950 -45
643213948842211166 -62
643213948849897382 -64
643213948857583598 -74
643213948865269814 -113
643213948872956030 -153
643213948880642246 -50
643213948888328462 355
643213948896014678 978
643213948903700894 1517
643213948911387110 1464
643213948919073326 620
643213948926759542 -180
643213948934445758 -262
643213948942131974 -129
643213948949818190 -175
643213948957504406 -182
643213948965190622 -127
643213948972876838 -141
643213948980563054 -149
643213948988249270 -117
643213948995935486 -101
643213949003621702 -84
643213949011307918 -57
643213949018994134 -55
643213949026680350 -52
643213949034366566 -26
643213949042052782 4
643213949049738998 19
643213949057425214 33
643213949065106468 57
643213949072792753 84
643213949080479038 105
643213949088165323 137
643213949095851608 168
643213949103537893 209
643213949111224178 254
643213949118910463 262
643213949126596748 247
643213949134283033 247
643213949141969318 247
643213949149655603 235
643213949157341888 211
643213949165028173 158
643213949172714458 93
643213949180400743 36
643213949188087028 -12
643213949195773313 -48
643213949203459598 -76
643213949211145883 -101
643213949218832168 -125
643213949226518453 -137
643213949234204738 -134
643213949241891023 -132
643213949249577308 -151
643213949257263593 -175
643213949264949878 -170
643213949272636163 -158
643213949280322448 -165
643213949288008733 -177
643213949295695018 -189
643213949303381303 -202
643213949311067588 -194
643213949318753873 -173
643213949326440158 -180
643213949334126443 -192
643213949341812728 -185
643213949349499013 -182
643213949357185298 -185
643213949364871583 -182
643213949372557868 -173
643213949380244153 -161
643213949387930438 -153
643213949395616723 -151
643213949403303008 -151
643213949410989293 -141
643213949418675578 -125
643213949426361863 -125
643213949434048148 -139
643213949441734433 -144
643213949449420718 -144
643213949457107003 -153
643213949464793288 -168
643213949472479573 -180
643213949480165858 -189
643213949487852143 -194
643213949495538428 -189
643213949503224713 -194
643213949510910998 -214
643213949518597283 -228
643213949526283568 -233
643213949533969853 -235
643213949541656138 -233
643213949549342423 -223
643213949557028708 -209
643213949564714993 -185
643213949572401278 -185
643213949580087563 -206
643213949587773848 -216
643213949595460133 -218
643213949603146418 -230
643213949610832703 -226
643213949618518988 -214
643213949626205329 -245
643213949633891614 -305
643213949641577899 -194
643213949649264184 281
643213949656950469 969
643213949664636754 1454
643213949672323039 1238
643213949680009324 281
643213949687695609 -480
643213949695381894 -485
643213949703068179 -339
643213949710754464 -401
643213949718440749 -404
643213949726127034 -334
643213949733813319 -339
643213949741499604 -346
643213949749185889 -305
643213949756872174 -271
643213949764558459 -264
643213949772244744 -250
643213949779931029 -233
643213949787617314 -209
643213949795303599 -177
643213949802989884 -151
643213949810676169 -129
643213949818362454 -103
643213949826048739 -69
643213949833735024 -33
643213949841421309 4
643213949849107594 43
643213949856793879 84
643213949864480164 122
643213949872166449 151
643213949879852734 170
643213949887539019 173
643213949895225304 165
643213949902911589 151
643213949910597874 129
643213949918284159 96
643213949925970444 60
643213949933656729 12
643213949941343014 -52
643213949949029299 -108
643213949956715584 -144
643213949964401869 -175
643213949972088154 -204
643213949979774439 -211
643213949987460724 -202
643213949995147009 -199
643213950002833294 -202
643213950010519579 -189
643213950018205864 -177
643213950025892149 -163
643213950033578434 -146
643213950041264719 -137
643213950048951004 -129
643213950056637289 -122
643213950064323574 -115
643213950072009859 -108
643213950079696144 -108
643213950087382429 -108
643213950095068714 -88
643213950102754999 -72
643213950110441284 -69
643213950118127569 -76
643213950125813854 -74
643213950133500139 -67
643213950141186424 -64
643213950148872709 -62
643213950156558994 -55
643213950164245279 -55
643213950171931564 -55
643213950179617849 -55
643213950187304190 -52
643213950194990475 -38
643213950202676760 -28
643213950210363045 -26
643213950218049330 -24
643213950225735615 -28
643213950233421900 -43
643213950241108185 -50
643213950248794470 -50
643213950256480755 -55
643213950264167040 -52
643213950271853325 -43
643213950279539610 -40
643213950287225895 -24
643213950294912180 0
643213950302598465 0
643213950310284750 -12
643213950317971035 -24
643213950325657320 -38
643213950333343605 -52
643213950341029890 -57
643213950348716175 -67
643213950356402460 -101
643213950364088745 -170
643213950371775030 -134
643213950379461315 250
643213950387147600 976
643213950394833885 1673
643213950402520170 1712
643213950410206455 757
643213950417892740 -303
643213950425579025 -492
643213950433265310 -293
643213950440951595 -339
643213950448637880 -391
643213950456324165 -317
643213950464010450 -298
643213950471696735 -312
643213950479383020 -288
643213950487069305 -269
643213950494755590 -264
643213950502441875 -242
643213950510128160 -216
643213950517814445 -194
643213950525500730 -175
643213950533187015 -163
643213950540873300 -144
643213950548559585 -103
643213950556245870 -72
643213950563932155 -64
643213950571618440 -57
643213950579304725 -31
643213950586991010 7
643213950594677295 38
643213950602363580 55
643213950610049865 64
643213950617736150 64
643213950625422435 43
643213950633108720 12
643213950640795005 -14
643213950648481290 -43
643213950656167575 -96
643213950663853860 -158
643213950671540145 -211
643213950679226430 -252
643213950686912715 -283
643213950694599000 -295
643213950702285285 -303
643213950709971570 -310
643213950717657855 -312
643213950725344140 -315
643213950733030425 -312
643213950740716710 -303
643213950748403051 -305
643213950756089336 -310
643213950763775621 -295
643213950771461906 -286
643213950779148191 -298
643213950786834476 -295
643213950794520761 -274
643213950802207046 -262
643213950809893331 -264
643213950817579616 -264
643213950825265901 -262
643213950832952186 -262
643213950840638471 -257
643213950848324756 -252
643213950856011041 -242
643213950863697326 -233
643213950871383611 -228
643213950879069896 -226
643213950886756181 -218
643213950894442466 -211
643213950902128751 -192
643213950909815036 -173
643213950917501321 -173
643213950925187606 -168
643213950932873891 -149
643213950940560176 -141
643213950948246461 -146
643213950955932746 -137
643213950963619031 -122
643213950971305316 -117
643213950978991601 -105
643213950986677886 -74
643213950994364171 -40
643213951002050456 -16
643213951009736741 7
643213951017423026 19
643213951025109311 7
643213951032795596 -7
643213951040481881 -2
643213951048168166 7
643213951055854451 4
643213951063540736 0
643213951071227021 -33
643213951078913306 -96
643213951086599591 4
643213951094285876 456
643213951101972161 1139
643213951109658446 1678
643213951117344731 1498
643213951125031016 512
643213951132717301 -305
643213951140403586 -351
643213951148089871 -228
643213951155776156 -300
643213951163462441 -307
643213951171148726 -247
643213951178835011 -259
643213951186521296 -264
643213951194207581 -230
643213951201893866 -218
643213951209580151 -211
643213951217266436 -170
643213951224952721 -125
643213951232639006 -105
643213951240325291 -93
643213951248011576 -81
643213951255697861 -67
643213951263384146 -40
643213951271070431 -9
643213951278756716 19
643213951286443001 55
643213951294129286 91
643213951301815571 122
643213951309532008 151
643213951317217875 182
643213951324903742 202
643213951332589609 202
643213951340275476 199
643213951347961343 189
643213951355647210 165
643213951363333077 137
643213951371018944 98
643213951378704811 45
643213951386390678 -9
643213951394076545 -48
643213951401762412 -55
643213951409448279 -57
643213951417134146 -72
643213951424820013 -79
643213951432505880 -72
643213951440191747 -64
643213951447877614 -69
643213951455563481 -76
643213951463249348 -84
643213951470935215 -93
643213951478621082 -101
643213951486306949 -103
643213951493992816 -113
643213951501678683 -127
643213951509364550 -134
643213951517050417 -139
643213951524736284 -151
643213951532422151 -161
643213951540108018 -168
643213951547793885 -170
643213951555479752 -170
643213951563165619 -168
643213951570851486 -165
643213951578537353 -161
643213951586223220 -151
643213951593909087 -146
643213951601594954 -151
643213951609280821 -149
643213951616966688 -129
643213951624652555 -113
643213951632338422 -108
643213951640024289 -103
643213951647710156 -86
643213951655396023 -76
643213951663081890 -86
643213951670767757 -101
643213951678453624 -105
643213951686139491 -110
643213951693825358 -120
643213951701511225 -122
643213951709197092 -117
643213951716882959 -110
643213951724568826 -103
643213951732254693 -103
643213951739940560 -117
643213951747626427 -144
643213951755312294 -170
643213951762998161 -165
643213951770684028 -146
643213951778369895 -156
643213951786055762 -199
643213951793741629 -242
643213951801427496 -170
643213951809113363 202
643213951816799230 846
643213951824485097 1447
643213951832170964 1447
643213951839856831 603
643213951847542698 -281
643213951855228565 -444
643213951862914432 -310
643213951870560179 -365
643213951878246604 -408
643213951885933029 -351
643213951893619454 -348
643213951901305879 -367
643213951908992304 -343
643213951916678729 -324
643213951924365154 -322
643213951932051579 -305
643213951939738004 -288
643213951947424429 -283
643213951955110854 -262
643213951962797279 -235
643213951970483704 -223
643213951978170129 -204
643213951985856554 -177
643213951993542979 -158
643213952001229404 -134
643213952008915829 -93
643213952016602254 -48
643213952024288679 -7
643213952031975104 28
643213952039661529 50
643213952047347954 57
643213952055034379 55
643213952062720804 45
643213952070407229 24
643213952078093654 -9
643213952085780079 -48
643213952093466504 -88
643213952101152929 -122
643213952108839354 -146
643213952116525779 -165
643213952124212204 -177
643213952131898629 -177
643213952139585054 -170
643213952147271479 -158
643213952154957904 -151
643213952162644329 -144
643213952170330754 -134
643213952178017179 -129
643213952185703604 -120
643213952193390029 -110
643213952201076454 -110
643213952208762879 -117
643213952216449304 -129
643213952224135729 -132
643213952231822154 -137
643213952239508579 -141
643213952247195004 -141
643213952254881429 -144
643213952262567854 -151
643213952270254279 -151
643213952277940704 -141
643213952285627129 -139
643213952293313554 -141
643213952300999979 -139
643213952308686404 -132
643213952316372829 -132
643213952324059254 -134
643213952331745679 -132
643213952339432104 -125
643213952347118529 -115
643213952354804954 -105
643213952362491379 -96
643213952370177804 -88
643213952377864229 -86
643213952385550654 -84
643213952393237079 -79
643213952400923504 -69
643213952408609929 -43
643213952416296354 -9
643213952423982779 2
643213952431689302 -14
643213952439375448 -40
643213952447061594 -50
643213952454747740 -43
643213952462433886 -24
643213952470120032 -21
643213952477806178 -57
643213952485492324 -88
643213952493178470 40
643213952500864616 476
643213952508550762 1072
643213952516236908 1481
643213952523923054 1281
643213952531609200 401
643213952539295346 -331
643213952546981492 -315
643213952554667638 -132
643213952562353784 -192
643213952570039930 -216
643213952577726076 -161
643213952585412222 -170
643213952593098368 -177
643213952600784514 -151
643213952608470660 -146
643213952616156806 -144
643213952623842952 -134
643213952631529098 -132
643213952639215244 -122
643213952646901390 -103
643213952654587536 -96
643213952662273682 -96
643213952669959828 -81
643213952677645974 -67
643213952685332120 -50
643213952693018266 -26
643213952700704412 4
643213952708390558 50
643213952716076704 93
643213952723762850 113
643213952731448996 125
643213952739135142 144
643213952746821288 141
643213952754507434 122
643213952762193580 108
643213952769879726 72
643213952777565872 4
643213952785252018 -50
643213952792938164 -91
643213952800624310 -127
643213952808310456 -156
643213952815996602 -161
643213952823682748 -158
643213952831368894 -170
643213952839055040 -189
643213952846741186 -197
643213952854427332 -199
643213952862113478 -202
643213952869799624 -202
643213952877485770 -197
643213952885171916 -192
643213952892858062 -187
643213952900544208 -187
643213952908230354 -192
643213952915916500 -194
643213952923602646 -199
643213952931288792 -199
643213952938974938 -194
643213952946661084 -199
643213952954347230 -214
643213952962033376 -218
643213952969719522 -221
643213952977405668 -221
643213952985091814 -218
643213952992767981 -216
643213953000454266 -223
643213953008140551 -223
643213953015826836 -216
643213953023513121 -216
643213953031199406 -221
643213953038885691 -216
643213953046571976 -211
643213953054258261 -209
643213953061944546 -206
643213953069630831 -206
643213953077317116 -216
643213953085003401 -226
643213953092689686 -223
643213953100375971 -221
643213953108062256 -214
643213953115748541 -187
643213953123434826 -153
643213953131121111 -129
643213953138807396 -132
643213953146493681 -146
643213953154179966 -151
643213953161866251 -141
643213953169552536 -137
643213953177238821 -146
643213953184925106 -189
643213953192611391 -233
643213953200297676 -57
643213953207983961 502
643213953215670246 1272
643213953223356531 1765
643213953231042816 1401
643213953238729101 315
643213953246415386 -377
643213953254101671 -295
643213953261787956 -189
643213953269474241 -274
643213953277160526 -254
643213953284846811 -197
643213953292533096 -204
643213953300219381 -194
643213953307905666 -170
643213953315591951 -163
643213953323278236 -153
643213953330964521 -134
643213953338650806 -117
643213953346337091 -110
643213953354023376 -98
643213953361709661 -81
643213953369395946 -74
643213953377082231 -67
643213953384768516 -50
643213953392454801 -26
643213953400141086 0
643213953407827371 28
643213953415513656 50
643213953423199941 74
643213953430886226 98
643213953438572511 108
643213953446258796 108
643213953453945081 105
643213953461631366 96
643213953469317651 72
643213953477003936 28
643213953484690221 -19
643213953492376506 -57
643213953500062791 -88
643213953507749076 -108
643213953515435361 -110
643213953523121646 -101
643213953530807931 -98
643213953538494216 -91
643213953546180501 -69
643213953553866842 -45
643213953561553127 -36
643213953569239412 -33
643213953576925697 -33
643213953584611982 -33
643213953592298267 -36
643213953599984552 -38
643213953607670837 -31
643213953615357122 -26
643213953623043407 -31
643213953630729692 -36
643213953638415977 -33
643213953646102262 -26
643213953653788547 -24
643213953661474832 -24
643213953669161117 -21
643213953676847402 -19
643213953684533687 -24
643213953692219972 -24
643213953699906257 -7
643213953707592542 2
643213953715278827 -24
643213953722965112 -36
643213953730651397 -14
643213953738337682 -16
643213953746023967 -31
643213953753710252 -24
643213953761396537 -24
643213953769082822 -43
643213953776769107 -55
643213953784455392 -67
643213953792141677 -88
643213953799827962 -98
643213953807514247 -103
643213953815200532 -110
643213953822886817 -113
643213953830573102 -105
643213953838259387 -91
643213953845945672 -86
643213953853631957 -103
643213953861318242 -117
643213953869004527 -120
643213953876690812 -125
643213953884377097 -125
643213953892063382 -115
643213953899749667 -151
643213953907435952 -214
643213953915122237 -108
643213953922808522 339
643213953930494807 1043
643213953938181092 1652
643213953945867377 1567
643213953953553662 630
643213953961239947 -223
643213953968926232 -324
643213953976612517 -214
643213953984298802 -293
643213953991985087 -322
643213953999671372 -264
643213954007357657 -266
643213954015043942 -283
643213954022730227 -269
643213954030416512 -269
643213954038102797 -274
643213954045789082 -250
643213954053475367 -226
643213954061161652 -214
643213954068847937 -206
643213954076534222 -197
643213954084220507 -175
643213954091906792 -149
643213954099593077 -132
643213954107279362 -113
643213954114965703 -79
643213954122651988 -43
643213954130338273 -9
643213954138024558 24
643213954145710843 45
643213954153397128 52
643213954161083413 62
643213954168769698 60
643213954176455983 28
643213954184142268 -4
643213954191828553 -33
643213954199514838 -84
643213954207201123 -151
643213954214887408 -194
643213954222573693 -216
643213954230259978 -240
643213954237946263 -264
643213954245632548 -266
643213954253318833 -257
643213954261005118 -247
643213954268691403 -242
643213954276377688 -245
643213954284063973 -242
643213954291750258 -228
643213954299436543 -221
643213954307122828 -221
643213954314809113 -216
643213954322495398 -204
643213954330181683 -197
643213954337867968 -194
643213954345554253 -194
643213954353240538 -192
643213954360926823 -180
643213954368613108 -165
643213954376299393 -153
643213954383985678 -139
643213954391671963 -129
643213954399358248 -120
643213954407044533 -96
643213954414730818 -74
643213954422417103 -64
643213954430103388 -57
643213954437789673 -48
643213954445475958 -40
643213954453162243 -28
643213954460848528 -16
643213954468534813 -28
643213954476221098 -55
643213954483907383 -67
643213954491593668 -72
643213954499279953 -91
643213954506966238 -110
643213954514652523 -122
643213954522338808 -141
643213954530025093 -163
643213954537711378 -165
643213954545397663 -151
643213954553083948 -137
643213954560770233 -117
643213954568456518 -86
643213954576142803 -55
643213954583829088 -38
643213954591515373 -40
643213954599201658 -52
643213954606887943 -50
643213954614574228 -40
643213954622260513 -31
643213954629946798 -28
643213954637633083 -64
643213954645319368 -113
643213954653005653 9
643213954660691938 449
643213954668378223 1058
643213954676089620 1483
643213954683775557 1305
643213954691461494 440
643213954699147431 -293
643213954706833368 -312
643213954714519305 -158
643213954722205242 -209
643213954729891179 -223
643213954737577116 -173
643213954745263053 -170
643213954752948990 -175
643213954760634927 -156
643213954768320864 -146
643213954776006801 -139
643213954783692738 -132
643213954791378675 -120
643213954799064612 -96
643213954806750549 -79
643213954814436486 -72
643213954822122423 -57
643213954829808360 -26
643213954837494297 -2
643213954845180234 12
643213954852866171 36
643213954860552108 67
643213954868238045 103
643213954875923982 137
643213954883609919 158
643213954891295856 170
643213954898981793 168
643213954906667730 151
643213954914353667 129
643213954922039604 101
643213954929725541 52
643213954937411478 -9
643213954945097415 -76
643213954952783352 -134
643213954960469289 -180
643213954968155226 -214
643213954975841163 -233
643213954983527100 -242
643213954991213037 -247
643213954998898974 -238
643213955006584911 -216
643213955014270848 -202
643213955021956785 -194
643213955029642722 -192
643213955037328659 -180
643213955045014596 -163
643213955052700533 -156
643213955060386470 -153
643213955068072407 -144
643213955075758344 -139
643213955083444281 -153
643213955091130218 -156
643213955098816155 -144
643213955106502092 -134
643213955114188029 -137
643213955121873966 -151
643213955129559903 -163
643213955137245840 -168
643213955144931777 -165
643213955152617714 -175
643213955160303651 -189
643213955167989588 -194
643213955175675525 -189
643213955183361462 -187
643213955191047399 -189
643213955198733336 -187
643213955206419273 -180
643213955214105210 -180
643213955221791147 -189
643213955229477084 -194
643213955237142966 -194
643213955244829182 -194
643213955252515398 -199
643213955260201614 -192
643213955267887830 -182
643213955275574046 -182
643213955283260262 -168
643213955290946478 -137
643213955298632694 -122
643213955306318910 -129
643213955314005126 -137
643213955321691342 -146
643213955329377558 -153
643213955337063774 -146
643213955344749990 -141
643213955352436206 -161
643213955360122422 -214
643213955367808638 -197
643213955375494854 134
643213955383181070 815
643213955390867286 1507
643213955398553502 1644
643213955406239718 848
643213955413925934 -192
643213955421612150 -476
643213955429298366 -293
643213955436984582 -319
643213955444670798 -382
643213955452357014 -317
643213955460043230 -290
643213955467729446 -300
643213955475415662 -276
643213955483101878 -254
643213955490788094 -242
643213955498474310 -218
643213955506160526 -197
643213955513846742 -185
643213955521532958 -168
643213955529219174 -137
643213955536905390 -108
643213955544591606 -79
643213955552277822 -45
643213955559964038 -12
643213955567650254 24
643213955575336470 60
643213955583022686 96
643213955590708902 132
643213955598395118 177
643213955606081334 216
643213955613767550 228
643213955621453766 216
643213955629139982 202
643213955636826198 182
643213955644512414 141
643213955652198630 91
643213955659884846 43
643213955667571062 -14
643213955675257278 -74
643213955682943494 -127
643213955690629710 -173
643213955698315926 -204
643213955706002142 -211
643213955713688358 -211
643213955721374574 -209
643213955729060790 -202
643213955736747006 -192
643213955744433222 -177
643213955752119438 -161
643213955759805654 -141
643213955767491870 -122
643213955775178086 -113
643213955782864302 -113
643213955790550518 -108
643213955798231772 -98
643213955805918057 -88
643213955813604342 -79
643213955821290627 -74
643213955828976912 -72
643213955836663197 -67
643213955844349482 -64
643213955852035767 -60
643213955859722052 -50
643213955867408337 -48
643213955875094622 -48
643213955882780907 -43
643213955890467192 -43
643213955898153477 -48
643213955905839762 -45
643213955913526047 -40
643213955921212332 -38
643213955928898617 -36
643213955936584902 -33
643213955944271187 -38
643213955951957472 -36
643213955959643757 -33
643213955967330042 -36
643213955975016327 -36
643213955982702612 -33
643213955990388897 -40
643213955998075182 -45
643213956005761467 -36
643213956013447752 -21
643213956021134037 -19
643213956028820322 -16
643213956036506607 -4
643213956044192892 7
643213956051879177 4
643213956059565462 -19
643213956067251747 -48
643213956074938032 -67
643213956082624317 -79
643213956090310602 -93
643213956097996887 -108
643213956105683172 -146
643213956113369457 -221
643213956121055742 -194
643213956128742027 153
643213956136428312 815
643213956144114597 1483
643213956151800882 1584
643213956159487167 762
643213956167173452 -230
643213956174859737 -468
643213956182546022 -295
643213956190232307 -312
643213956197918592 -365
643213956205604877 -307
643213956213291162 -295
643213956220977447 -307
643213956228663732 -278
643213956236350017 -245
643213956244036302 -238
643213956251722587 -228
643213956259408872 -206
643213956267095157 -187
643213956274781442 -177
643213956282467727 -165
643213956290154012 -149
643213956297840297 -134
643213956305526582 -122
643213956313212867 -105
643213956320899152 -79
643213956328585437 -43
643213956336271722 -12
643213956343958007 12
643213956351644292 26
643213956359330633 45
643213956367016918 67
643213956374703203 64
643213956382389488 48
643213956390075773 31
643213956397762058 4
643213956405448343 -43
643213956413134628 -101
643213956420820913 -156
643213956428507198 -209
643213956436193483 -245
643213956443879768 -264
643213956451566053 -274
643213956459252338 -278
643213956466938623 -278
643213956474624908 -283
643213956482311193 -286
643213956489997478 -281
643213956497683763 -274
643213956505370048 -276
643213956513056333 -278
643213956520742618 -271
643213956528428903 -262
643213956536115188 -259
643213956543801473 -250
643213956551487758 -245
643213956559174043 -250
643213956566860328 -247
643213956574546613 -240
643213956582232898 -240
643213956589919183 -238
643213956597605468 -238
643213956605291753 -240
643213956612978038 -233
643213956620664323 -226
643213956628350608 -218
643213956636036893 -211
643213956643723178 -209
643213956651409463 -209
643213956659095748 -199
643213956666782033 -192
643213956674468318 -187
643213956682154603 -177
643213956689840888 -165
643213956697527173 -151
643213956705213458 -129
643213956712899743 -108
643213956720586028 -91
643213956728272313 -76
643213956735958598 -74
643213956743644883 -76
643213956751331168 -74
643213956759017453 -67
643213956766703738 -57
643213956774390023 -48
643213956782076308 -38
643213956789762593 -26
643213956797448878 -28
643213956805135163 -60
643213956812821448 -91
643213956820507733 -110
643213956828194018 -129
643213956835880303 -137
643213956843566588 -132
643213956851252873 -170
643213956858939158 -230
643213956866625443 -161
643213956874311728 218
643213956881998013 853
643213956889684298 1442
643213956897370583 1481
643213956905056868 675
643213956912743153 -230
643213956920429494 -379
643213956928115779 -177
643213956935802064 -206
643213956943488349 -269
643213956951174634 -211
643213956958860919 -197
643213956966547204 -216
643213956974233489 -204
643213956981919774 -185
643213956989606059 -170
643213956997292344 -156
643213957004978629 -149
643213957012664914 -134
643213957020351199 -103
643213957028037484 -86
643213957035723769 -81
643213957043410054 -69
643213957051096339 -40
643213957058782624 -9
643213957066468909 16
643213957074155194 55
643213957081841479 103
643213957089527764 149
643213957097214049 185
643213957104900334 209
643213957112586619 221
643213957120272904 218
643213957127959189 211
643213957135645474 187
643213957143331759 137
643213957151018044 74
643213957158704329 9
643213957166390614 -60
643213957174076899 -127
643213957181763184 -173
643213957189449469 -187
643213957197135754 -197
643213957204822039 -211
643213957212508324 -218
643213957220194609 -221
643213957227880894 -223
643213957235567179 -226
643213957243253464 -223
643213957250939749 -221
643213957258626034 -218
643213957266312319 -223
643213957273998604 -226
643213957281684889 -218
643213957289371174 -214
643213957297057459 -223
643213957304743744 -233
643213957312430029 -226
643213957320116314 -218
643213957327802599 -223
643213957335488884 -223
643213957343175169 -206
643213957350861454 -197
643213957358547739 -197
643213957366234024 -192
643213957373920309 -192
643213957381606594 -199
643213957389292879 -197
643213957396979164 -187
643213957404665449 -175
643213957412351734 -168
643213957420038019 -165
643213957427724304 -165
643213957435410589 -163
643213957443096874 -161
643213957450783159 -156
643213957458469444 -158
643213957466155729 -168
643213957473842014 -168
643213957481528355 -156
643213957489214640 -149
643213957496900925 -149
643213957504587210 -139
643213957512273495 -115
643213957519959780 -86
643213957527646065 -88
643213957535332350 -117
643213957543018635 -129
643213957550704920 -129
643213957558391205 -132
643213957566077490 -129
643213957573763775 -132
643213957581450060 -173
643213957589136345 -214
643213957596822630 -67
643213957604508915 437
643213957612195200 1159
643213957619881485 1666
643213957627567770 1377
643213957635254055 305
643213957642940340 -449
643213957650626625 -396
643213957658312910 -283
643213957665999195 -382
643213957673685480 -379
643213957681371765 -322
643213957689058050 -339
643213957696744335 -334
643213957704430620 -298
643213957712116905 -286
643213957719803190 -286
643213957727489475 -266
643213957735175760 -242
643213957742862045 -228
643213957750548330 -218
643213957758234615 -202
643213957765920900 -175
643213957773607185 -146
643213957781293470 -117
643213957788979755 -88
643213957796666040 -62
643213957804352325 -33
643213957812038610 9
643213957819724895 52
643213957827411180 84
643213957835097465 103
643213957842783750 108
643213957850470035 93
643213957858156320 69
643213957865842605 38
643213957873528890 -2
643213957881215175 -57
643213957888901460 -105
643213957896587745 -146
643213957904274030 -180
643213957911960315 -192
643213957919646600 -194
643213957927332885 -204
643213957935019170 -204
643213957942705455 -185
643213957950391740 -161
643213957958078025 -144
643213957965764310 -137
643213957973450595 -125
643213957981136880 -108
643213957988823165 -98
643213957996509450 -93
643213958004195735 -86
643213958011882020 -84
643213958019568305 -93
643213958027254590 -105
643213958034940875 -110
643213958042627220 -117
643213958050313505 -125
643213958057999790 -129
643213958065686075 -137
643213958073372360 -134
643213958081058645 -125
643213958088744930 -125
643213958096431215 -125
643213958104117500 -120
643213958111803785 -108
643213958119490070 -88
643213958127176355 -76
643213958134862640 -69
643213958142548925 -62
643213958150235210 -52
643213958157921495 -38
643213958165607780 -28
643213958173294065 -21
643213958180980350 -21
643213958188666635 -19
643213958196352920 -21
643213958204039205 -26
643213958211725490 -28
643213958219411775 -24
643213958227098060 -16
643213958234784345 -2
643213958242470630 14
643213958250156915 28
643213958257843200 36
643213958265529485 31
643213958273215770 14
643213958280902055 0
643213958288588340 -12
643213958296274625 -7
643213958303960910 -4
643213958311647195 -28
643213958319333480 -81
643213958327019765 -24
643213958334706050 343
643213958342392335 981
643213958350078620 1596
643213958357764905 1649
643213958365451190 803
643213958373137475 -165
643213958380823760 -360
643213958388510045 -202
643213958396196330 -266
643213958403882615 -324
643213958411568900 -271
643213958419255185 -288
643213958426941470 -322
643213958434627755 -303
643213958442314040 -290
643213958450000325 -290
643213958457686610 -274
643213958465372895 -259
643213958473059180 -254
643213958480745465 -240
643213958488431750 -216
643213958496118035 -189
643213958503804320 -165
643213958511490605 -134
643213958519176890 -101
643213958526863175 -72
643213958534549460 -31
643213958542235745 28
643213958549922030 81
643213958557608315 113
643213958565294600 141
643213958572980885 161
643213958580667170 149
643213958588353455 129
643213958596039740 113
643213958603726081 74
643213958611412366 21
643213958619098651 -31
643213958626784936 -96
643213958634471221 -153
643213958642157506 -185
643213958649843791 -206
643213958657530076 -228
643213958665216361 -238
643213958672902646 -238
643213958680588931 -230
643213958688275216 -223
643213958695961501 -218
643213958703647786 -206
643213958711334071 -192
643213958719020356 -189
643213958726706641 -202
643213958734392926 -209
643213958742079211 -199
643213958749765496 -182
643213958757451781 -182
643213958765138066 -185
643213958772824351 -187
643213958780510636 -197
643213958788196921 -199
643213958795883206 -197
643213958803569491 -197
643213958811255776 -199
643213958818942061 -204
643213958826628346 -216
643213958834314631 -216
643213958842000916 -209
643213958849687201 -211
643213958857373486 -211
643213958865059771 -204
643213958872746056 -216
643213958880432341 -230
643213958888118626 -228
643213958895804911 -228
643213958903491196 -240
643213958911177481 -235
643213958918863766 -218
643213958926550051 -218
643213958934236336 -230
643213958941922621 -228
643213958949608906 -206
643213958957295191 -177
643213958964981476 -151
643213958972667761 -134
643213958980354046 -110
643213958988040331 -91
643213958995726616 -103
643213959003412901 -117
643213959011099186 -108
643213959018785471 -96
643213959026471756 -86
643213959034158041 -74
643213959041844326 -103
643213959049530611 -144
643213959057216896 -9
643213959064903181 452
643213959072589466 1106
643213959080275751 1599
643213959087962036 1418
643213959095648321 473
643213959103334606 -310
643213959111020891 -346
643213959118707176 -214
643213959126393461 -286
643213959134079746 -303
643213959141766031 -242
643213959149452316 -240
643213959157138601 -254
643213959164839990 -228
643213959172526066 -206
643213959180212142 -194
643213959187898218 -168
643213959195584294 -139
643213959203270370 -113
643213959210956446 -81
643213959218642522 -67
643213959226328598 -60
643213959234014674 -31
643213959241700750 14
643213959249386826 55
643213959257072902 84
643213959264758978 115
643213959272445054 156
643213959280131130 194
643213959287817206 226
643213959295503282 259
643213959303189358 276
643213959310875434 264
643213959318561510 238
643213959326247586 202
643213959333933662 158
643213959341619738 108
643213959349305814 33
643213959356991890 -43
643213959364677966 -84
643213959372364042 -115
643213959380050118 -161
643213959387736194 -185
643213959395422270 -175
643213959403108346 -173
643213959410794422 -182
643213959418480498 -177
643213959426166574 -168
643213959433852650 -161
643213959441538726 -163
643213959449224802 -165
643213959456910878 -153
643213959464596954 -139
643213959472283030 -156
643213959479969106 -163
643213959487655182 -141
643213959495341258 -137
643213959503027334 -156
643213959510713410 -163
643213959518399486 -170
643213959526085562 -182
643213959533771638 -187
643213959541457714 -197
643213959549143790 -197
643213959556829866 -185
643213959564515942 -175
643213959572202018 -173
643213959579888094 -173
643213959587574170 -170
643213959595260246 -151
643213959602946322 -127
643213959610632398 -129
643213959618318474 -144
643213959626004550 -149
643213959633690626 -151
643213959641376702 -156
643213959649062778 -153
643213959656748854 -144
643213959664434930 -129
643213959672121006 -113
643213959679807082 -84
643213959687493158 -52
643213959695179234 -50
643213959702865310 -64
643213959710551386 -76
643213959718237462 -86
643213959725903505 -86
643213959733589860 -81
643213959741276215 -91
643213959748962570 -141
643213959756648925 -194
643213959764335280 -40
643213959772021635 505
643213959779707990 1274
643213959787394345 1803
643213959795080700 1476
643213959802767055 319
643213959810453410 -464
643213959818139765 -363
643213959825826120 -223
643213959833512475 -334
643213959841198830 -312
643213959848885185 -235
643213959856571540 -262
643213959864257895 -269
643213959871944250 -240
643213959879630605 -240
643213959887316960 -233
643213959895003315 -209
643213959902689670 -192
643213959910376025 -175
643213959918062380 -144
643213959925748735 -108
643213959933435090 -76
643213959941121445 -52
643213959948807800 -38
643213959956494155 -19
643213959964180510 4
643213959971866865 28
643213959979553220 48
643213959987239575 79
643213959994925930 115
643213960002612285 115
643213960010298640 93
643213960017984995 81
643213960025671350 62
643213960033357705 14
643213960041044060 -45
643213960048730415 -101
643213960056416770 -158
643213960064103125 -211
643213960071789480 -250
643213960079475835 -278
643213960087162190 -283
643213960094848545 -276
643213960102534900 -276
643213960110221255 -276
643213960117907610 -266
643213960125593965 -259
643213960133280320 -252
643213960140966675 -245
643213960148653030 -240
643213960156339385 -233
643213960164025740 -218
643213960171712095 -194
643213960179398450 -165
643213960187084805 -141
643213960194771160 -127
643213960202457515 -115
643213960210143870 -86
643213960217830225 -57
643213960225516580 -60
643213960233202935 -57
643213960240889290 -33
643213960248575645 -26
643213960256262000 -40
643213960263948355 -50
643213960271634710 -60
643213960279321065 -79
643213960287007454 -96
643213960294693809 -105
643213960302380164 -117
643213960310066519 -134
643213960317752874 -158
643213960325439229 -165
643213960333125584 -149
643213960340811939 -134
643213960348498294 -129
643213960356184649 -113
643213960363871004 -96
643213960371557359 -88
643213960379243714 -81
643213960386930069 -62
643213960394616424 -38
643213960402302779 -12
643213960409989134 21
643213960417675489 45
643213960425361844 38
643213960433048199 19
643213960440734554 12
643213960448420909 12
643213960456107264 12
643213960463793619 14
643213960471479974 9
643213960479166329 -26
643213960486852684 -60
643213960494539039 101
643213960502225394 593
643213960509911749 1250
643213960517598104 1697
643213960525284459 1438
643213960532970814 435
643213960540657169 -324
643213960548343524 -286
643213960556029879 -141
643213960563716234 -228
643213960571402589 -245
643213960579088944 -204
643213960586775299 -211
643213960594461654 -206
643213960602148009 -185
643213960609834364 -177
643213960617520719 -163
643213960625207074 -132
643213960632893429 -125
643213960640579784 -122
643213960648266139 -86
643213960655952494 -50
643213960663638849 -43
643213960671325204 -40
643213960679011559 -24
643213960686697914 -4
643213960694384269 12
643213960702070624 26
643213960709756979 40
643213960717443334 45
643213960725129689 40
643213960732816044 33
643213960740502399 19
643213960748188754 -7
643213960755875109 -36
643213960763561464 -57
643213960771247819 -86
643213960778934174 -117
643213960786620529 -156
643213960794306884 -199
643213960801993239 -216
643213960809679594 -221
643213960817365949 -235
643213960825052304 -242
